ConstAcc,0.5,0.2542,-50.32974,-47.19328,-44.27233,-41.55525,-39.03079,-36.68812,-34.51684,-32.50691,-30.6487,-28.93297,-27.35082,-25.89374,-24.5536,-23.32257,-22.1932,-21.15838,-20.21129,-19.34548,-18.55477,-17.83331,-17.17554,-16.5762,-16.03029,-15.53311,-15.08021,-14.66741,-14.29077,-13.94661,-13.63148,-13.34214,-13.07561,-12.8291,-12.60002,-12.38599,-12.18482,-11.9945,-11.81321,-11.63927,-11.47119,-11.30761,-11.14732,-10.98927,-10.83251,-10.67622,-10.51972,-10.36239,-10.20375,-10.0434,-9.881023,-9.71637,-9.549272,-9.37962,-9.207355,-9.032468,-8.854986,-8.674967,-8.803098,-8.031591,-6.757067,-9.004348,-10.16062,-10.55507,-10.36311,-10.11179,-10.23996,-10.5578,-10.76334,-10.56454,-9.673156,-9.351083,-9.032231,-8.46669,-7.007189,-5.37057,-4.080001,-3.084452,-2.237692,-1.359636,-0.5769949,0.07062352,0.381248,0.510433,0.728932,1.152807,1.659704,2.081026,2.445944,2.85079,3.260042,3.857164,4.321078,4.7103,5.00929,5.182257,5.457742,5.784209,6.173835,6.542713,6.863901,7.390242,8.128059,9.100281,10.14603,11.43983,12.83891,14.2833,15.67485,17.18311,18.84757,20.48814,22.11196,23.56125,25.00864,26.36444,27.67753,28.87633,30.05905,30.97945,31.77764,32.77674,33.64289,34.31338,34.69026,34.87303,34.93298,34.82356,34.72823,34.54153,34.18761,33.73674,32.99721,32.07158,30.95595,29.85073,28.58983,27.29147,25.98374,24.56515,23.20488,22.04066,20.91512,19.84318,18.60389,17.26203,16.04958,14.81571,13.74787,12.76372,11.76195,10.93208,10.1905,9.324425,8.526569,7.885345,7.234667,6.76431,6.458804,6.277764,6.078589,6.29025,6.471355,6.624978,6.881939,7.35709,7.697254,8.056915,8.349239,8.663647,9.003976,9.184818,9.807149,10.46304,11.13074,11.7884,12.63453,13.6815,14.54827,15.77728,17.11742,18.60914,20.21264,21.88131,23.47852,24.89799,25.97803,27.01311,27.75738,28.47132,29.23122,29.77018,30.34576,31.09572,31.79348,32.52487,33.00621,33.24502,33.23612,32.96729,32.65852,32.54421,32.33828,32.39725,32.73735,33.44853,34.63827,36.03246,37.33317,39.02814,41.04068,43.44636,46.139,48.9382,51.91022,54.95925,58.09773,60.97571,63.37209,65.4787,66.96539,67.74073,67.8096,66.94026,65.27912,62.91798,60.19484,57.25645,54.4192,51.5025,49.13716,47.22593,45.45616,43.89567,42.3468,40.88625,39.44728,37.88994,36.51716,35.05534,33.44868,31.99651,30.5705,29.45327,28.41731,27.39573,26.36774,25.60706,24.72711,23.90074,23.37401,22.9537,22.56251,21.90461,21.34867,20.43137,19.58782,18.82418,18.25469,17.87569,17.4321,17.40239,17.69064,18.14854,18.74197,19.43648,20.31372,21.26152,22.581,24.07421,25.60012,27.22315,28.76822,30.29215,31.88939,33.38245,34.88211,36.42385,38.0797,39.5139,40.73092,42.08276,43.71523,45.34635,46.91052,48.26885,49.74473,51.34081,52.98947,54.75151,56.27395,57.61416,59.03077,60.05271,60.82546,61.40858,61.68747,61.58438,61.04376,59.89593,57.88467,55.01148,51.86634,48.47792,44.54673,40.49833,36.38906,32.55912,29.08851,26.29831,23.98285,22.35719,21.259,20.75193,20.96546,21.56615,23.22841,25.23154,27.69125,30.80167,33.83137,37.19883,40.75406,44.7921,48.96353,53.30157,57.51131,61.44541,64.86283,67.97944,70.24177,72.00827,73.28877,74.40514,75.24676,75.93266,76.89175,77.88219,79.22899,80.68961,82.17771,83.54272,85.015,86.40777,87.33102,87.85106,87.87576,87.88938,87.82917,87.27514,86.19905,84.80726,83.04461,81.07279,78.51252,75.7492,72.94869,69.95781,66.88625,63.74477,60.15276,56.10507,51.67931,47.03999,42.34555,37.18647,32.10659,27.27614,22.90371,18.79621,14.42141,10.58065,6.706124,2.821416,-1.172348,-5.095885,-8.907733,-12.31096,-15.29115,-18.27959,-21.13692,-24.01946,-26.54927,-29.28166,-31.50038,-33.72405,-35.871,-37.98414,-39.47505,-40.71293,-41.66406,-42.10948,-42.27321,-42.04273,-41.73456,-41.36382,-40.62446,-39.57383,-38.02936,-36.1747,-34.24249,-32.59562,-30.52546,-28.42908,-26.29212,-24.55034,-23.71689,-23.08019,-22.8253,-22.8484,-23.36991,-23.81834,-24.22612,-24.87627,-25.23194,-25.35827,-25.26225,-24.83659,-24.24171,-23.46692,-22.88921,-22.14289,-21.52218,-20.90701,-20.22756,-19.85102,-19.62433,-20.26665,-20.86936,-21.47688,-22.03232,-22.22609,-22.24339,-21.98304,-21.99423,-22.52377,-23.47449,-24.77974,-26.37568,-27.76232,-29.48563,-30.97484,-32.40177,-33.54231,-34.86655,-36.0241,-36.86289,-37.72465,-38.26007,-39.44505,-40.66421,-41.51588,-41.78843,-41.87271,-42.0226,-42.1675,-42.20367,-42.05133,-41.90279,-41.74453,-41.7849,-41.46602,-40.95709,-40.55097,-40.08814,-39.24386,-38.45715,-38.02508,-37.76963,-37.43953,-37.2163,-37.17763,-36.96888,-36.42793,-35.57096,-34.77468,-34.16177,-33.51462,-32.79581,-31.98264,-31.27375,-30.50806,-30.35604,-30.05466,-29.80255,-29.63808,-29.70359,-29.39859,-29.43311,-29.52869,-29.71036,-29.81837,-29.70911,-29.88621,-29.69134,-29.9338,-30.60892,-31.47131,-31.81236,-32.24133,-33.05972,-33.85258,-34.41824,-35.1437,-35.8644,-37.05977,-38.22617,-39.16562,-39.79588,-40.17221,-40.91905,-41.86142,-42.63867,-43.81329,-45.29174,-46.82864,-48.6577,-50.25614,-52.12207,-53.79495,-55.82461,-57.78674,-59.79158,-61.39172,-62.11315,-62.93351,-63.89087,-64.71297,-65.16104,-65.04027,-65.35716,-65.47024,-65.89416,-66.13933,-66.06987,-65.67961,-64.99262,-63.6495,-61.73037,-59.21198,-56.80897,-54.46253,-52.38603,-50.33278,-48.47267,-46.72672,-44.82928,-43.2118,-41.70654,-39.50749,-37.64936,-35.62501,-33.88111,-31.99666,-30.0471,-28.29257,-26.74675,-26.40684,-26.00069,-26.0784,-24.96483,-23.39866,-21.73923,-20.39783,-19.10917,-17.80211,-16.80434,-16.01283,-15.03445,-14.4995,-13.51586,-12.7957,-12.54724,-12.94696,-12.89125,-12.45222,-12.22686,-12.46163,-12.67878,-12.44278,-12.64482,-12.76948,-13.09112,-12.86352,-13.04798,-13.34333,-13.73076,-14.31771,-14.93532,-15.55703,-16.3946,-17.16258,-18.36155,-19.1368,-19.986,-20.39345,-21.23111,-22.62685,-24.2255,-25.21821,-25.96327,-26.01663,-26.32299,-26.98863,-27.93292,-28.88611,-30.07789,-30.94429,-31.35833,-31.94769,-32.43793,-32.36049,-32.61815,-33.28589,-33.76808,-34.35802,-34.39922,-34.62114,-34.62108,-35.12286,-35.68946,-36.48082,-37.21693,-37.99319,-38.68287,-38.7447,-38.89054,-38.83004,-38.63795,-38.29439,-37.93673,-38.09613,-38.50171,-39.28598,-40.10839,-41.67982,-42.95029,-44.03966,-45.2945,-46.79568,-48.71608,-50.29606,-52.47791,-54.20271,-55.42439,-56.3712,-57.1502,-57.76684,-58.46214,-58.7621,-59.23,-59.6407,-60.381,-61.18316,-62.33275,-63.54241,-64.96567,-66.1984,-67.40982,-67.43293,-67.50675,-66.94111,-66.67995,-66.52606,-66.25925,-65.8746,-65.76865,-65.72189,-64.9666,-64.30919,-63.66519,-63.59844,-63.1372,-62.64325,-61.64804,-60.18145,-58.5233,-56.846,-55.35023,-54.69199,-53.41019,-52.3174,-51.43789,-50.5368,-49.03899,-47.13707,-45.88524,-44.81029,-44.65742,-44.80581,-44.37694,-43.43459,-42.65274,-41.78483,-41.56957,-40.9666,-41.00725,-41.19776,-41.9553,-42.30965,-42.72446,-42.61062,-43.67907,-44.71956,-45.8473,-46.43133,-47.82804,-48.82043,-49.23283,-49.23047,-49.0703,-48.52518,-48.17098,-48.1016,-48.31579,-48.04893,-47.50038,-46.69457,-46.71744,-46.5242,-46.17558,-45.48028,-45.18089,-44.86302,-44.13259,-43.32119,-42.00095,-40.92303,-39.4585,-38.29725,-36.82509,-35.17626,-34.0382,-32.68819,-31.46058,-29.38598,-27.62356,-26.11297,-25.02664,-24.27253,-23.54466,-22.97133,-21.98864,-21.22737,-19.98516,-19.10044,-17.53393,-16.80295,-15.70873,-14.41177,-12.93579,-11.91869,-11.04631,-10.15182,-9.137349,-7.929878,-6.794305,-6.062303,-5.405412,-5.177193,-4.729167,-4.676517,-4.816174,-4.991949,-5.067133,-4.797387,-4.224402,-3.718164,-3.124162,-2.187914,-1.209375,-0.422924,-0.3393683,-0.423776,-0.3369353,-0.3521372,-0.7963406,-0.9454848,-1.011596,-1.001271,-0.5797971,0.5158843,2.463128,4.348579,6.027248,7.666472,9.327266,10.14684,11.02177,11.82925,13.65928,15.30308,16.84781,18.38398,19.63014,20.91424,21.66337,22.43972,23.05764,24.04319,25.86645,27.14448,28.0109,28.17755,28.37656,28.31956,28.01238,27.49424,26.76013,26.48894,25.19726,24.59912,23.05915,21.98198,21.35496,20.58346,19.43023,18.41023,16.95677,15.57775,14.21015,13.29557,12.37428,11.13766,8.993588,7.984373,6.92638,5.684259,4.009603,3.221126,2.292804,1.498477,1.066575,0.4116158,-0.2038459,-0.5848533,-0.4200891,-0.6437002,-1.294285,-2.31819,-3.670502,-4.598786,-5.713609,-6.855342,-7.524894,-7.687013,-8.383974,-9.298583,-9.71191,-10.28504,-11.10061,-11.2659,-11.4153,-11.45748,-11.61664,-12.29619,-12.57247,-13.21156,-13.0361,-13.21728,-13.43341,-13.85565,-13.92623,-14.37698,-14.53194,-14.93238,-15.27678,-15.78384,-15.73724,-15.82998,-15.31876,-15.43995,-14.77175,-14.13723,-13.97345,-14.00617,-13.44549,-13.12511,-12.90179,-12.92949,-13.02951,-13.38194,-13.90226,-14.279,-14.53182,-14.82957,-14.82384,-14.2549,-13.64442,-12.90042,-12.28561,-12.01848,-11.18381,-10.46226,-10.02555,-9.251627,-8.896998,-8.924701,-8.141105,-7.271295,-6.840322,-6.443197,-5.35323,-4.760067,-4.139602,-3.558366,-2.908672,-2.165082,-1.312857,-0.5318308,-0.108791,-0.1527057,0.3214032,0.9524111,1.607657,1.880695,2.037424,1.842197,2.10497,1.725793,1.621728,2.842132,3.201904,3.74214,2.93614,2.20808,1.92374,2.312913,2.750376,3.024738,3.038607,3.602618,3.626982,3.639047,3.602529,4.620296,4.66647,4.830757,4.518693,4.232716,3.73937,3.487473,3.585392,3.596395,3.575004,3.404639,3.431683,2.919937,2.515868,2.172776,1.69358,1.400446,1.343937,1.606758,2.318621,2.038979,1.492431,1.221039,0.9771111,0.163911,-0.1219351,0.2348745,0.02217284,-0.5358997,-1.253269,-1.752672,-1.982233,-2.335934,-1.799024,-1.537625,-1.563483,-2.203409,-2.329784,-2.024088,-1.779204,-1.779951,-1.656402,-1.374823,-0.4294564,0.1696725,0.7091911,0.9212251,2.094437,2.672655,3.178262,4.017221,4.866137,4.968193,5.338963,5.925597,6.471689,7.330827,8.224709,9.219158,9.893151,9.86714,10.26459,10.94792,11.7284,12.65886,13.0289,13.6438,14.69675,15.4479,15.93335,15.82167,16.01026,16.87659,17.72343,18.6315,18.30043,18.2963,19.22647,19.59988,19.92647,19.94454,20.16578,20.00097,20.37014,21.00418,20.92045,21.20917,21.86043,22.04753,22.0557,21.58586,21.13523,21.08011,21.37636,21.17252,21.64783,21.02593,20.22116,19.77776,19.05151,19.50128,19.33423,19.23988,19.1148,19.08778,18.87524,18.67274,18.39862,18.23199,17.85663,17.29497,16.20063,15.68567,15.27586,14.89653,14.70566,14.35075,13.93294,13.74021,13.23306,12.60519,12.01583,11.6803,11.88172,11.65638,11.1955,10.43843,9.807988,9.898505,9.547952,9.03326,8.682826,8.11566,8.050532,8.015268,8.025283,7.473984,6.842648,6.604186,6.610267,6.461162,6.148702,5.500166,5.364059,5.008509,4.800974,4.552455,4.652709,4.828664,4.666956,4.740474,4.890522,5.327665,5.965356,6.108459,6.353943,6.750185,7.41634,7.894833,8.535533,8.977509,9.006763,9.570465,10.62648,11.8436,12.73606,13.04743,13.06719,13.43716,13.64432,13.23933,13.77415,14.57775,15.25387,15.64491,15.54199,15.17178,15.42682,15.39659,15.6128,15.80905,16.24076,15.65504,15.55298,16.00187,15.55904,15.96534,16.58634,16.70859,17.0308,16.9644,16.91212,16.82651,17.82317,18.73539,19.11279,19.2364,19.34428,19.57531,20.48893,21.53917,22.89875,24.1842,25.26564,26.36504,27.51721,28.01786,28.71114,29.14763,29.62035,29.62937,29.67698,30.24792,30.74659,31.32446,29.81261,27.86148,26.62662,27.21818,28.84257,30.89159,32.66188,34.45343,36.50564,39.10661,41.25925,43.64292,45.70662,48.41766,51.47921,54.71952,57.56483,60.69981,63.17382,65.44135,68.519,71.5402,74.81246,78.18006,81.43489,84.24332,87.2125,89.53241,92.5467,94.98703,97.65101,99.72994,101.0345,102.4087,103.8669,105.7931,106.764,107.4971,108.6821,109.6479,110.4915,110.6383,110.9106,110.953,111.5409,112.1767,112.5878,111.9434,111.7291,111.503,111.3812,111.3978,110.8377,110.3421,109.5297,108.5602,107.5085,106.2153,104.6676,102.8509,100.5914,98.06806,95.20865,92.15256,88.83837,85.36698,81.77653,77.93551,73.78123,69.33835,64.93618,60.74823,56.10808,50.85743,46.20394,41.78421,37.84418,33.57867,29.89024,26.35821,22.4126,19.13601,16.0035,13.50934,12.62596,12.97899,13.80089,16.34783,20.22941,24.39505,29.20748,35.40486,42.93118,51.43079,60.95521,70.97913,81.87925,93.76436,106.0786,119.3249,132.8264,146.5483,160.5571,174.5815,189.4462,204.0736,218.6099,233.3683,248.337,263.4617,278.9744,296.1973,315.3485,335.573,355.6319,374.4481,391.1784,405.7851,419.7065,432.4519,444.226,456.46,466.9688,476.9546,487.6646,497.7328,507.2661,516.286,523.8098,530.1509,535.3081,538.6109,541.1765,543.2554,545.3856,546.5544,546.5331,544.7569,543.2349,541.0722,539.1231,535.8719,531.0133,525.5706,519.7057,513.2225,507.0323,500.5515,492.5627,484.2641,475.6756,465.7473,455.2587,443.7613,433.6149,424.0951,415.2835,406.2048,397.1974,388.0611,379.423,371.7767,363.6387,355.9948,349.5672,343.4509,337.2793,331.0432,324.5246,318.991,313.6938,308.3819,302.8313,297.4918,292.1316,287.4593,282.8322,278.0752,273.0967,267.8967,262.7611,257.5864,252.4801,247.3425,242.2353,237.1553,232.1664,226.0108,218.9477,212.3606,205.3193,199.1296,192.3854,185.9629,180.2547,174.4441,168.3963,162.7098,155.895,148.6566,142.0647,135.8856,128.7023,121.646,114.9425,108.9495,103.9574,99.23097,93.74854,88.66808,83.46663,79.10264,74.11446,69.07581,65.06777,61.65549,59.70768,59.1767,58.40851,58.30331,59.39158,60.50465,62.04894,62.82865,62.80502,60.77968,58.05814,55.53386,53.35782,51.62447,51.22785,51.02324,50.35328,50.18628,50.82194,50.3257,49.42231,46.65399,43.28603,40.57154,38.55332,36.796,35.66561,34.31748,33.03785,31.34477,29.16632,27.90469,26.96607,25.48778,24.03138,21.88381,19.42022,17.38344,15.12857,13.59486,12.14851,8.471961,3.817671,-0.07873385,-4.291609,-8.684912,-12.90352,-16.62229,-19.40062,-22.27354,-24.94899,-28.40192,-32.64682,-36.00805,-39.01769,-42.31183,-45.88036,-48.53527,-51.41404,-55.16589,-59.03437,-62.83483,-67.07823,-70.79883,-74.39391,-77.97392,-81.69169,-86.25962,-90.47726,-94.12842,-97.98098,-101.4603,-104.7953,-109.0213,-112.7342,-115.7606,-118.1475,-121.7604,-125.2672,-128.5679,-131.099,-134.6555,-138.3853,-141.9027,-145.1839,-147.7982,-150.7263,-153.2804,-156.1067,-158.3001,-160.6114,-162.7311,-164.9262,-168.1545,-170.5853,-172.4544,-174.6872,-176.0833,-178.0959,-179.5709,-181.1594,-182.5199,-184.5792,-186.2939,-187.8093,-189.0191,-190.5208,-191.3068,-192.0928,-192.1006,-192.0403,-192.2537,-193.0199,-193.6071,-193.6777,-193.4116,-193.2755,-193.2731,-194.1618,-194.581,-194.0116,-193.4328,-193.0662,-192.4906,-191.7947,-191.593,-191.5095,-191.2073,-191.1342,-191.3522,-190.0234,-187.6015,-185.11,-183.6152,-183.0413,-182.4253,-180.8503,-180.2278,-179.6241,-179.3874,-178.9714,-177.9423,-177.6991,-177.0942,-176.3613,-175.2143,-174.0037,-173.2077,-172.8447,-172.0877,-171.2486,-170.0461,-168.4827,-167.2244,-166.5415,-165.6339,-164.8063,-163.4244,-163.0881,-162.747,-161.1904,-159.6488,-157.3799,-155.2514,-153.2558,-150.6297,-146.9639,-143.986,-141.4414,-138.2948,-135.1225,-131.8585,-128.7262,-125.416,-121.7242,-118.9475,-115.5556,-112.1718,-108.6635,-105.6008,-102.1599,-98.7789,-96.31055,-94.21305,-91.6454,-89.42674,-86.37205,-84.19432,-82.52622,-81.44001,-79.78539,-77.60436,-76.08991,-75.1194,-73.9499,-72.59385,-71.27303,-70.37716,-69.47081,-69.37756,-68.82156,-68.37415,-68.34246,-69.06106,-69.37798,-69.96828,-70.56617,-71.1388,-72.18048,-74.00339,-75.70351,-77.08802,-78.30642,-79.95498,-82.28396,-84.66032,-86.42987,-88.73246,-91.68687,-94.56822,-97.62282,-100.032,-103.0969,-106.1893,-109.586,-112.7465,-116.0941,-118.9011,-121.6627,-123.7825,-126.1353,-128.3492,-130.2628,-133.0415,-135.5822,-137.3863,-138.7681,-139.1981,-139.7596,-140.592,-140.2685,-141.1148,-142.4921,-144.1305,-145.428,-145.7113,-146.3483,-147.2826,-147.9656,-148.595,-149.4892,-149.4949,-149.6407,-149.3795,-150.5337,-150.3767,-150.5822,-150.8616,-151.6897,-152.9695,-153.0419,-153.5175,-153.8796,-155.3862,-157.1305,-158.319,-159.1295,-159.345,-160.9674,-161.7247,-161.8732,-161.6533,-160.9004,-161.3557,-161.8632,-162.3943,-162.7098,-163.2895,-163.3125,-164.005,-164.7408,-165.1423,-165.1874,-165.7152,-166.7374,-166.8283,-166.5725,-166.4821,-167.3521,-168.3625,-169.4525,-170.8249,-171.7111,-172.7162,-173.6548,-175.2895,-176.0582,-177.3891,-179.0472,-180.7951,-182.3597,-183.1092,-184.4982,-185.3422,-186.3341,-187.0653,-187.7334,-188.4289,-189.1154,-190.2274,-189.9497,-190.4364,-190.9737,-191.6985,-192.6115,-192.702,-192.0662,-190.7816,-189.9335,-190.4808,-190.5417,-190.4337,-190.1474,-190.8633,-192.359,-193.3988,-194.111,-194.4981,-195.6307,-196.2104,-197.6345,-199.0661,-200.5599,-201.84,-203.8929,-204.9802,-206.387,-206.8164,-207.8093,-209.3784,-211.4833,-212.8526,-213.6711,-216.1561,-218.769,-220.0785,-221.3969,-221.5121,-221.8581,-223.1823,-223.9543,-224.4291,-223.9331,-223.9421,-223.7544,-223.4488,-223.6892,-222.7614,-221.7812,-221.4354,-220.9897,-220.2617,-220.3605,-219.264,-218.2237,-217.1192,-216.8686,-216.775,-216.7302,-216.4523,-215.6036,-215.2597,-214.4903,-214.7315,-214.0773,-213.5887,-213.3285,-212.9507,-213.2943,-213.1414,-213.2171,-212.8473,-213.0919,-213.2072,-213.5698,-214.5353,-215.0638,-215.5407,-215.4082,-216.0016,-216.339,-217.6424,-217.4317,-216.8999,-216.1502,-216.8418,-218.5828,-220.2213,-222.0178,-223.6837,-225.9779,-228.3524,-230.2867,-232.9541,-235.7501,-239.8333,-243.2704,-246.116,-248.7621,-252.2307,-255.2213,-257.6379,-259.4144,-261.4797,-263.4989,-266.0594,-267.6579,-268.9217,-269.9006,-270.6745,-272.3368,-273.277,-273.1275,-272.4177,-271.2319,-269.5793,-268.1913,-266.7969,-265.8025,-264.7281,-263.3461,-261.5335,-259.8232,-258.1379,-256.1411,-253.9173,-250.9808,-247.5821,-244.8175,-242.2092,-240.1319,-237.7996,-235.0434,-232.0883,-229.6466,-226.9618,-224.3748,-221.8666,-219.5815,-217.9786,-216.6669,-214.7441,-213.0705,-211.9263,-209.674,-207.0641,-205.9735,-203.4913,-201.8735,-200.4779,-198.9652,-197.823,-196.5438,-195.0127,-193.7425,-192.7936,-192.1982,-190.5746,-189.3555,-188.9439,-187.7487,-187.2639,-186.5236,-184.4132,-183.7207,-183.9729,-184.0673,-183.628,-182.3742,-182.0769,-182.1393,-182.3082,-182.1166,-181.513,-181.4587,-182.1382,-182.3283,-181.994,-182.0717,-182.5223,-183.3663,-184.6937,-185.3204,-184.9137,-185.0832,-185.9225,-186.6014,-186.2291,-184.9873,-184.5816,-183.6578,-183.7224,-182.1017,-182.1888,-182.6901,-184.1325,-184.6312,-184.4591,-184.4666,-184.4338,-185.1131,-186.1622,-186.8939,-187.84,-187.948,-188.2195,-187.2736,-185.6416,-183.4825,-181.4121,-179.3841,-177.768,-174.7751,-171.7206,-168.179,-164.0766,-159.3008,-154.5673,-150.2342,-145.4076,-140.9394,-134.9707,-129.4812,-123.5427,-117.3785,-111.6857,-106.0067,-100.2943,-93.69701,-87.423,-81.0451,-74.74217,-68.10634,-62.10511,-55.38308,-49.19315,-43.24031,-36.72899,-29.97745,-24.03108,-17.52293,-11.70587,-5.568862,-0.3737591,4.834942,10.59313,15.65492,20.26251,24.65886,28.7409,32.84948,36.46722,39.52431,42.34762,45.45213,47.34723,49.02119,51.45909,52.96049,54.27758,55.19643,55.92053,56.22813,56.37839,56.49503,56.8298,56.43288,55.62332,54.96351,54.68309,54.17187,52.84395,51.48825,50.61424,49.58183,48.39365,46.92078,46.02016,44.96877,43.66769,42.72177,42.35343,41.73502,41.20078,40.12664,40.47431,40.1406,40.47945,40.63703,40.74895,40.98576,41.67978,42.93342,43.96692,45.06593,46.11011,47.46314,49.73512,51.66209,53.04042,54.59407,55.55797,56.56643,57.79284,59.29611,59.79794,60.78579,61.73156,61.4564,61.4678,61.41856,61.33764,61.36003,61.55796,62.62588,63.89065,64.81183,64.83879,65.26118,65.53382,65.94677,66.75027,67.48941,68.12661,69.66826,71.32292,72.26478,72.66639,73.35893,74.67059,75.77041,77.15508,77.83265,78.96804,79.91032,81.20437,82.25806,82.56108,84.49044,86.04387,87.53761,88.88071,89.81982,90.68254,92.65623,94.66859,96.69905,98.80964,100.6422,101.922,104.3695,105.8278,106.7137,106.7796,107.7057,108.6836,110.0063,112.0232,113.2179,115.5355,117.4861,119.7517,121.4303,123.1944,125.708,127.4418,129.7622,131.7393,133.6,135.4006,137.2911,138.7332,139.491,140.7834,142.2163,144.0138,144.421,144.3749,144.823,145.5754,146.1099,146.6687,146.8003,146.9912,147.1873,146.8568,147.1949,146.6431,146.7195,146.2071,146.1848,145.5625,144.0983,143.118,142.5614,141.4047,140.9546,140.6799,138.6043,136.6165,134.9066,133.4702,131.1413,128.7451,126.3695,124.4484,122.539,120.6191,118.598,116.8149,115.0409,112.7283,109.6201,107.6038,105.1868,103.7814,102.1324,99.40317,96.90962,95.11997,94.4679,93.47367,91.09965,89.6899,88.15183,87.64513,86.86074,85.71935,85.7911,85.89834,85.92542,85.47676,85.5404,86.31441,88.22409,89.45447,90.49145,91.24933,92.96295,93.72657,96.2214,98.09959,100.1205,102.3654,104.041,107.3836,110.314,113.0583,116.4839,118.6158,121.6463,125.0495,127.8536,130.3326,133.7194,136.3492,139.3937,141.4892,142.965,145.8858,148.6172,149.2008,150.0666,151.8308,153.9336,157.2641,161.1631,163.5222,165.0004,167.7456,170.1602,173.1022,174.9317,176.7098,178.416,181.2001,183.29,184.013,185.393,186.6707,188.0348,189.9232,190.5557,191.4639,192.5622,194.021,194.7967,195.3765,195.8431,197.3739,197.919,199.2269,200.201,200.5017,200.3158,201.83,203.3319,203.9919,204.0986,204.4177,205.611,205.3664,206.4967,207.0483,207.5499,207.8616,209.7878,209.6494,209.589,209.9062,209.614,210.3273,210.9391,210.7435,210.5521,209.9156,210.3492,211.1694,211.2056,210.8739,209.9731,210.5197,210.1624,209.7785,208.9093,208.6041,207.5586,208.1036,207.84,206.4929,204.8524,203.8867,202.4006,202.3437,200.1771,198.6649,199.0803,198.0364,198.1477,196.4285,195.754,196.0216,196.1412,195.5522,195.0865,194.3516,193.5516,193.5346,192.7524,191.7651,191.7893,190.8282,190.8039,189.4733,188.0638,189.3,188.276,187.1707,185.9567,184.2405,183.7158,182.7641,180.7273,177.6742,176.7903,174.5424,173.2204,171.1672,168.8538,167.2163,163.7357,160.8543,159.103,156.7464,153.7196,151.2036,148.2461,145.1539,142.4966,139.679,136.1708,133.5449,130.1274,127.0047,123.4399,120.6034,116.858,113.8899,110.7313,106.9525,103.6483,100.5968,97.69142,95.24464,91.89839,89.10143,85.794,83.05491,78.45671,76.59677,74.45794,72.49061,70.20624,67.41726,65.27571,63.1019,60.51684,58.67673,56.39104,55.11814,52.90442,50.43727,49.80015,48.08748,46.16944,44.1851,43.89173,42.84218,41.69376,39.8156,37.83935,37.63594,36.35354,34.92851,33.43799,32.45812,32.7466,32.36794,30.90821,29.77183,28.68356,28.33064,26.77007,25.93941,24.66218,23.50386,22.33308,21.50162,18.84865,15.97751,14.4309,14.05883,12.35576,10.63276,7.882956,6.747362,6.095504,2.83575,1.034362,-1.777154,-2.393735,-3.038731,-3.36086,-3.924398,-4.939236,-6.5271,-7.809565,-6.767789,-7.546243,-7.935439,-8.062848,-7.739249,-7.491807,-7.914666,-7.46244,-7.303521,-8.774244,-8.517336,-7.940695,-8.350308,-9.3759,-9.763751,-10.33708,-10.68529,-10.44399,-11.45615,-11.74132,-12.05367,-13.21627,-14.666,-15.63643,-16.3692,-16.94005,-18.39335,-19.75106,-20.73692,-22.51435,-23.47819,-25.02881,-26.68637,-28.98746,-30.16607,-31.8073,-33.50815,-35.81496,-38.9222,-41.79932,-43.1341,-45.73096,-48.59818,-50.48117,-52.45049,-54.0585,-56.71412,-59.9248,-62.16868,-64.81997,-66.27608,-68.55537,-69.24098,-72.02326,-74.5406,-76.01887,-78.02801,-80.30902,-82.46278,-83.4166,-84.34034,-85.86388,-87.8488,-90.06989,-90.9867,-91.08235,-92.01181,-93.79584,-94.20936,-93.42134,-93.30147,-92.39177,-92.94457,-93.81149,-93.88245,-93.0354,-92.23142,-93.37794,-93.71937,-93.25996,-92.77386,-92.45164,-92.80201,-92.9399,-92.5353,-91.36769,-91.24423,-91.06418,-91.16831,-90.43633,-89.76763,-88.66059,-88.67329,-88.69469,-88.26761,-88.15557,-87.56979,-87.13312,-87.86012,-88.46399,-87.59402,-85.26539,-84.10204,-83.24055,-82.19589,-80.84084,-79.69298,-78.6872,-77.26406,-75.56958,-72.84959,-71.63266,-69.53753,-67.18281,-65.60872,-63.8998,-61.43807,-58.5373,-57.46744,-55.16777,-52.01799,-49.18169,-47.57515,-45.2398,-43.07094,-41.40269,-38.608,-35.72536,-33.01934,-30.74414,-28.39967,-26.10239,-23.97508,-21.90277,-20.14603,-17.56596,-15.67653,-13.32017,-11.00573,-9.585508,-7.296307,-5.480802,-3.537135,-2.401248,-1.872594,-0.3762825,1.273622,2.08286,1.563291,2.744184,4.654473,4.88926,5.497649,6.810182,6.947522,6.904286,6.785857,6.386478,6.825762,6.562871,6.857345,6.628989,6.30748,5.264711,4.255515,3.600075,4.126367,3.600804,2.939619,1.65714,1.057172,0.363881,-0.3340384,-0.7640028,-0.8155843,-0.8042493,-0.9433709,-1.368481,-0.1292876,-0.4819778,0.1568362,-0.3482175,-1.83011,-1.751513,-2.264095,-2.136326,-2.186177,-3.243389,-3.022407,-2.889022,-3.685691,-3.977985,-4.325738,-4.765244,-5.252737,-5.47682,-5.820616,-5.771044,-6.206483,-6.167296,-6.578338,-6.7991,-7.119148,-6.906932,-6.814399,-7.820013,-7.524241,-7.160563,-8.169236,-7.853505,-7.099992,-7.784532,-8.311142,-8.405986,-8.215994,-8.190428,-7.191456,-6.913202,-7.194045,-7.594175,-7.445215,-6.506558,-6.095734,-6.059421,-6.817671,-6.745625,-5.486057,-4.599801,-5.247034,-4.996336,-4.793485,-4.847729,-4.580242,-3.310203,-3.992355,-3.643311,-2.308868,-1.870956,-1.525535,-1.587796,-1.44603,-0.961482,-1.234633,-0.2139266,-0.1593413,0.1567325,0.5282219,2.10423,2.668835,2.966121,3.07183,3.509797,4.629193,4.424188,3.925125,5.211017,6.455137,6.562693,7.19262,7.9063,8.520839,9.05309,9.876115,11.29941,10.58229,10.22124,10.86932,12.37829,12.66883,12.72602,13.03948,13.69584,14.24929,14.26577,14.43875,14.77153,15.86462,15.29102,15.40559,14.9745,15.00614,15.49234,15.91525,16.02946,15.68991,15.8972,15.31763,16.40162,17.23368,16.0024,16.74699,14.68258,15.24015,16.11157,14.78424,15.17511,16.46506,14.9104,14.86951,14.70424,14.4857,14.21109,13.98328,12.98491,12.97537,13.42503,12.8782,13.62039,14.81708,14.51283,13.92048,13.3056,14.32042,13.59599,14.26225,14.03217,15.57318,17.17634,17.45997,17.91151,18.47525,18.93608,21.20878,22.53768,22.11751,23.12317,24.55939,25.81433,26.69395,27.36839,28.42696,29.5607,30.3755,30.92437,31.68395,33.0344,33.91135,35.09144,35.48394,35.97742,36.41186,37.04763,39.11198,40.34546,38.99021,40.25925,40.76964,41.6981,42.70491,42.65101,42.77923,43.15497,43.81288,45.55521,45.2258,44.94133,45.35959,46.1008,46.33813,46.5492,46.05009,45.6728,46.00378,46.21028,45.92238,45.58197,46.01673,46.01813,45.0418,45.09925,45.06994,44.23324,44.70207,45.26273,44.24817,43.64682,43.59078,43.68929,43.10181,43.01122,42.2047,42.47709,42.48013,42.61888,41.43957,40.58735,41.27843,41.40897,41.70195,41.11155,41.01168,40.55311,41.27192,42.14476,41.66778,41.03239,40.89945,41.48487,39.79344,37.49963,36.11219,35.49207,37.01296,37.12403,36.79299,36.84885,36.64362,35.66916,36.20423,37.08204,36.42264,34.96581,35.08754,35.79586,36.0825,35.55171,34.62263,35.42518,35.02852,33.83605,31.9385,31.25329,31.87735,31.05462,31.1992,30.1047,28.55313,27.50406,26.47565,25.5582,24.71242,22.12216,21.10207,20.1145,17.78066,16.61526,14.75324,13.91031,11.76695,10.16374,7.65345,4.498845,2.830944,0.8642847,-1.489638,-4.113887,-6.977179,-8.615067,-11.3971,-13.74453,-16.71675,-19.45547,-21.29351,-23.91801,-26.53397,-28.74537,-31.31447,-32.82818,-34.51619,-36.64831,-38.90513,-40.96302,-42.4189,-44.43645,-47.07128,-48.99729,-50.66231,-52.10197,-52.75686,-54.56294,-57.02319,-57.26711,-58.75095,-59.39603,-60.56426,-60.92177,-61.81251,-62.07524,-62.16575,-60.92764,-62.54281,-62.5581,-61.64837,-61.1632,-60.28593,-60.89856,-61.11504,-59.42773,-58.06807,-58.56795,-58.34371,-57.36471,-55.9568,-54.9656,-55.69093,-54.46103,-52.11739,-49.95635,-48.94612,-49.31524,-49.60648,-49.87421,-48.59429,-48.60322,-50.40889,-51.83076,-52.41751,-53.60228,-54.99647,-56.85886,-57.17145,-57.14836,-57.64931,-58.11494,-59.07057,-60.59663,-60.52141,-60.84424,-62.04312,-61.82271,-62.70822,-63.19649,-61.9341,-62.06492,-63.1232,-63.08022,-61.5104,-60.75582,-60.62143,-60.61238,-60.28601,-58.18675,-56.5335,-55.76978,-54.81039,-53.48745,-52.33023,-49.58913,-47.66047,-46.38942,-44.47361,-42.53255,-39.65323,-37.16831,-35.16815,-32.58804,-30.14733,-26.96904,-25.09206,-22.63161,-20.90705,-17.59491,-14.65952,-12.75374,-10.69107,-7.582544,-4.983216,-2.857809,-1.212824,0.9919468,3.425534,5.845853,8.384872,10.14237,11.82265,13.62262,16.00298,17.39607,19.13048,19.47679,20.9785,22.06322,22.11321,23.20859,24.15695,25.07218,24.8846,25.1254,25.29742,24.45677,24.67798,25.41407,23.60786,24.48686,23.70242,22.57279,22.37217,22.13617,20.87353,19.58771,18.52664,18.5682,17.57595,17.09779,15.96369,14.22755,14.54525,15.11607,13.68452,11.72975,12.28219,13.33771,14.32584,13.8268,13.71277,14.85847,16.84744,17.24866,15.66662,15.2732,15.64977,16.64814,17.77525,17.26003,17.02168,17.08772,17.8332,17.14509,16.77434,16.49898,17.76809,18.27856,18.30912,17.63253,17.49609,18.20166,18.95453,18.72684,18.25679,18.70398,18.66047,19.26625,20.4546,19.45763,19.26697,20.56533,21.66126,20.42803,19.91803,20.65296,21.30005,21.76447,21.71314,21.52212,21.90778,22.64767,22.95475,22.54143,21.6991,22.17751,22.80141,23.11639,23.58428,23.50633,23.55346,23.7926,24.85257,24.85348,24.77287,24.68551,24.83133,25.41687,25.19072,25.62541,26.04889,26.66717,26.41686,26.44352,26.08768,26.87015,27.57222,27.35308,27.37417,27.04763,27.61326,27.84127,27.55695,27.64426,27.24167,27.47105,28.04823,27.66815,27.69348,28.72528,28.38823,28.79526,28.05018,28.54891,28.63048,28.30896,28.4874,28.91939,28.63509,28.63123,27.95195,28.064,28.65721,27.22808,26.86736,27.40403,28.17757,28.28786,27.062,26.55221,26.42517,27.33534,27.47428,27.00447,26.93707,25.29637,27.24363,27.35877,27.05461,25.89275,25.75338,24.5587,24.38487,22.82718,22.44649,22.94097,22.66166,23.51268,22.99726,22.67575,22.95796,23.80774,24.49321,24.59926,25.19395,25.22985,26.22575,26.70992,27.28787,26.76548,27.70032,27.51389,28.49073,28.66859,28.7246,28.3537,28.49226,28.64223,28.71379,27.22561,26.5831,27.02805,26.37204,25.04046,24.51793,23.76936,22.45101,21.56522,20.35612,19.13835,16.89736,16.07296,14.15468,12.3707,9.972142,8.791355,7.633358,5.834698,4.092412,0.7534406,-1.013809,-3.49349,-3.880082,-6.177027,-8.479957,-11.79918,-13.00778,-14.06293,-16.76989,-18.88443,-21.41135,-23.33763,-25.55333,-27.20121,-29.03155,-31.07569,-33.30505,-34.92737,-36.75899,-37.89512,-40.22523,-43.35953,-43.30254,-44.00275,-45.84721,-47.37496,-48.98211,-48.95201,-49.32817,-51.19786,-51.9472,-52.42642,-53.42459,-52.63282,-53.06946,-53.99737,-53.84465,-53.18223,-53.0261,-52.90234,-52.42751,-51.64759,-51.60417,-50.82387,-50.10296,-49.35848,-49.44742,-48.5822,-47.2641,-45.43076,-44.73212,-45.06689,-44.93628,-44.61892,-45.04902,-46.07091,-45.95435,-47.30115,-48.10094,-49.45734,-52.12857,-53.1251,-53.83069,-53.53393,-53.43715,-54.49087,-55.24353,-55.67856,-55.98204,-55.72311,-55.58065,-55.22056,-55.63541,-56.01393,-55.34575,-54.1181,-53.12302,-52.25675,-51.22902,-50.43477,-49.16403,-48.09802,-45.98822,-44.22816,-42.90347,-41.4562,-40.07048,-36.70085,-34.43891,-31.95753,-29.53939,-27.67651,-24.6666,-21.35882,-19.24718,-16.41928,-13.34226,-11.01615,-8.075288,-4.633145,-2.188679,1.085852,3.305166,6.577728,9.519003,11.83471,14.94275,17.43331,20.4223,21.59159,24.80773,26.7424,30.54288,32.00449,33.20571,35.08292,36.76228,37.35456,39.32621,41.28044,42.02397,42.25645,44.22456,45.59105,45.43841,45.4808,45.76874,46.33002,46.29842,46.07654,44.57895,44.34093,44.83837,42.30105,40.92162,39.82656,39.16126,38.35458,36.84401,35.01579,34.87591,33.2133,32.55148,31.53273,29.75307,27.99698,26.6568,25.33738,25.16487,23.56071,21.26725,20.27046,19.74726,20.59863,19.41285,18.28515,17.92411,18.77922,18.75178,17.61126,16.16774,14.66832,14.87327,14.67465,14.19769,12.43222,11.00679,11.59985,10.86329,10.76078,9.677108,10.09003,8.44425,8.875512,8.543672,7.210636,6.23137,5.225497,5.735142,5.203168,4.350184,2.874049,3.065969,2.821681,3.183625,2.054484,1.591715,1.275829,0.6342747,0.9492603,0.2017515,-0.5982725,-0.8104179,-0.1828266,-0.4728437,-1.321965,-2.206603,-1.672933,-1.705621,-1.435549,-2.588613,-3.079014,-3.013304,-3.106236,-3.648931,-3.582182,-4.867413,-5.740869,-4.410543,-4.946986,-5.446384,-6.035091,-6.322247,-6.596163,-6.73266,-7.046734,-6.92497,-8.114219,-9.00795,-9.305585,-8.238514,-9.983689,-10.4648,-10.76317,-10.72022,-12.38655,-12.80056,-13.11391,-12.25334,-12.71181,-12.85188,-13.60903,-13.62851,-14.13374,-14.29589,-14.76502,-16.39267,-16.32052,-16.66544,-16.7622,-17.30171,-18.15626,-19.45967,-19.35145,-18.34005,-18.53307,-19.27666,-19.20603,-19.23418,-18.95567,-19.10825,-20.19944,-20.58081,-20.79428,-21.09564,-21.45693,-22.17251,-22.65775,-21.98318,-22.70261,-22.58534,-21.68311,-22.50273,-22.37818,-22.8402,-23.07405,-22.44454,-22.70382,-22.86655,-22.02973,-22.72776,-22.47412,-22.52587,-22.62954,-23.19719,-22.87814,-22.65366,-22.44476,-22.47328,-21.10491,-21.77633,-22.64416,-23.16591,-22.52912,-22.35167,-22.25529,-22.35151,-22.66078,-21.67754,-22.31325,-22.10876,-20.83721,-20.92992,-21.40695,-20.72921,-20.12955,-19.40593,-20.18482,-19.43705,-18.8688,-19.10309,-18.87605,-18.55658,-18.48064,-17.77662,-18.33365,-18.23031,-18.68839,-19.18825,-21.39683,-22.22263,-22.43861,-24.31894,-23.84,-24.82452,-25.27386,-25.94298,-25.58491,-26.755,-26.895,-26.24918,-27.15375,-27.769,-28.04746,-26.41246,-27.03526,-27.50957,-28.60856,-28.06679,-26.98827,-26.56194,-27.23133,-26.50438,-25.78315,-24.4088,-23.73029,-22.43812,-21.28041,-19.73675,-17.73816,-15.69203,-13.40653,-10.19757,-7.096935,-3.790969,-0.9868592,4.068149,8.852306,13.1985,17.72341,23.37758,29.06079,33.66878,39.99302,46.31676,52.1208,58.23492,64.29754,70.09966,76.4617,82.76484,88.36626,94.89575,101.3535,106.9298,113.7398,119.6811,125.4786,131.2101,135.7895,142.5395,146.998,150.5569,155.6027,159.6392,163.4996,167.2606,169.1922,172.159,174.4475,175.2058,177.3997,176.6273,176.8615,176.2803,176.4294,174.0817,172.2126,170.5345,167.7535,164.0268,160.1935,155.7866,150.3344,145.9459,142.312,137.0125,131.9655,127.1951,121.8628,117.5791,113.9118,107.691,103.3764,98.41612,93.78018,89.22263,83.97941,78.67221,74.32589,70.7169,65.94024,60.46464,55.85863,51.54864,46.46802,42.06817,36.42716,32.05447,27.61756,24.5261,21.33603,17.06674,14.00376,10.68889,9.075836,5.635651,2.996095,-1.134295,-2.366494,-5.22983,-7.400535,-9.930854,-12.87251,-14.68211,-18.12931,-20.22722,-23.62153,-25.61917,-28.62766,-31.37615,-33.5885,-37.11047,-40.82847,-43.37476,-46.60839,-49.29147,-52.22555,-56.33344,-58.70185,-61.44242,-63.03561,-67.04508,-70.88908,-73.73301,-76.15275,-78.25335,-81.60506,-84.28719,-87.00538,-89.38778,-92.02612,-95.01599,-97.69914,-100.4995,-102.6941,-104.6724,-108.0149,-109.5787,-111.7162,-113.469,-114.7739,-115.7873,-117.3251,-119.027,-118.6584,-119.5017,-119.6594,-120.9231,-120.9906,-119.7965,-121.215,-120.2583,-119.7118,-118.7876,-116.6708,-115.0797,-113.9656,-113.1826,-112.4174,-111.3323,-110.1127,-110.243,-109.7466,-110.309,-109.6439,-109.2428,-109.5402,-109.9747,-111.1249,-111.4722,-112.2626,-112.8626,-112.9429,-112.1007,-111.2305,-110.8404,-110.9496,-110.6308,-109.8701,-108.3612,-107.3974,-106.9047,-106.4328,-105.6033,-102.8092,-100.894,-100.3239,-98.46966,-96.02269,-94.30985,-92.33156,-90.05811,-87.67312,-85.47714,-83.13845,-80.17532,-77.5279,-74.79572,-72.75586,-69.37551,-65.69716,-62.9218,-60.43906,-57.08169,-53.75871,-50.98657,-47.73618,-44.69539,-41.02247,-37.80393,-33.46719,-31.5387,-28.58701,-24.89748,-21.81403,-18.6449,-15.56144,-11.92905,-9.442082,-6.154456,-2.81656,-0.8666095,2.959663,6.358647,8.528751,11.54229,13.76308,15.84432,18.59646,20.81941,23.34511,23.4728,25.76857,27.84319,30.24191,31.55111,33.5129,34.59111,35.47519,36.45775,38.60552,38.54327,39.75794,39.97747,41.68873,42.19195,42.22226,43.15073,42.46366,42.92024,43.94058,43.55181,43.65977,43.48344,45.2718,45.2967,45.97907,45.15043,45.72192,45.69663,45.54955,46.54638,47.47876,48.47706,49.75476,48.69387,49.60799,49.31699,47.42771,48.7069,49.2676,48.77443,47.47623,46.63597,46.62538,45.82714,43.66308,42.99615,42.51868,41.76694,40.67383,40.50229,39.79781,38.08451,37.93067,38.28071,36.35211,36.05901,34.87348,33.74433,33.82723,33.68372,31.73004,32.69051,32.56545,31.63307,31.01121,30.87933,30.43902,30.47124,30.43191,28.80094,28.93759,29.26626,29.11297,30.38561,31.00176,30.91948,31.9309,32.77371,32.52226,33.81532,35.01092,35.23877,36.27192,37.80132,38.42365,39.13921,40.3285,40.84085,41.65691,41.43355,42.38673,42.76405,43.99128,44.43793,45.59069,46.09014,45.54141,45.85368,45.99614,47.30393,48.05365,45.54004,45.45626,46.73092,45.18803,45.04136,44.71038,43.00398,42.80255,42.61392,43.17911,43.0533,41.50624,41.43619,42.09723,41.10548,40.29079,39.32031,38.93808,37.82006,37.77718,35.93321,35.90101,35.24746,34.3259,34.23771,32.42708,32.23194,31.67018,31.01392,31.04983,30.70277,28.83601,27.83061,27.05081,26.81526,25.68121,24.55866,24.59086,24.64683,24.53977,23.7548,23.84126,22.00339,22.09601,20.18503,19.64281,21.74029,20.19631,19.97135,20.259,20.28196,20.74132,20.26451,21.97484,23.23731,25.01815,25.05359,25.17263,27.6203,27.89722,29.23675,30.16166,30.27146,30.37366,31.57739,30.78205,31.5288,31.48561,30.3625,30.52853,30.00512,28.58322,27.14952,26.33698,24.13103,23.90656,21.65472,18.77443,16.44928,16.67842,15.64781,12.5628,11.41463,9.484181,7.440411,5.666989,2.407965,0.4528362,-0.3815996,-2.974786,-5.434237,-7.721152,-9.863131,-12.79474,-15.27873,-17.29067,-20.05564,-22.82728,-25.47308,-27.17454,-29.20963,-31.96802,-35.06778,-36.5284,-39.03579,-42.0801,-43.64793,-46.42302,-47.2354,-49.24065,-52.36731,-52.97146,-55.20116,-58.48244,-57.1536,-58.55349,-60.13182,-60.92285,-61.26812,-60.90003,-61.28137,-62.12744,-61.46325,-62.25512,-62.13008,-61.91555,-61.66336,-61.70735,-60.49219,-59.33685,-58.90033,-58.40183,-57.25819,-57.02045,-54.86193,-54.74138,-54.1085,-51.9368,-50.97311,-50.84307,-49.6455,-49.32132,-48.20882,-46.51554,-45.6813,-46.59176,-45.94778,-45.54012,-46.36379,-46.52989,-45.62553,-47.01111,-46.28139,-46.34089,-46.16038,-45.51959,-46.57438,-47.43116,-47.40016,-48.5594,-48.79905,-49.2522,-51.03322,-50.10572,-51.41301,-52.18331,-53.09501,-53.4952,-53.35609,-54.60042,-54.21284,-55.53051,-55.99144,-55.86006,-56.27006,-56.38624,-55.71931,-55.75177,-56.02275,-55.75556,-55.52319,-53.92607,-54.57365,-52.40352,-52.11549,-49.61299,-49.89134,-47.87322,-45.80594,-43.06313,-41.92765,-39.94209,-38.32748,-36.44454,-33.408,-30.27751,-28.70158,-25.58396,-22.94114,-20.95261,-17.27481,-15.13417,-12.36005,-9.784081,-7.767161,-4.265,-1.090802,-0.2926077,2.88206,6.267709,7.953973,10.23956,13.12222,15.53502,17.16316,19.45154,22.65172,22.94303,25.486,27.17175,28.60607,30.63117,31.70274,33.06872,35.67587,35.92685,36.98574,37.29247,38.77258,40.36173,40.62808,40.20548,40.47123,40.84371,41.24817,41.45574,40.19428,40.51143,41.05851,40.13641,39.58921,38.58925,38.60998,38.32617,37.30595,36.54176,35.14385,35.28718,32.94603,33.15766,33.42269,32.50004,32.04934,33.06585,31.67431,31.59465,32.0877,31.32008,31.96654,31.85776,33.06844,33.18553,35.30474,32.94325,32.52588,33.13819,33.12123,32.13458,31.58767,30.46887,31.55788,30.84756,30.42462,30.29967,29.96924,29.15159,30.51436,28.57677,27.52021,27.32599,27.92928,26.72374,25.38257,25.55397,24.44015,23.63831,23.22837,22.33305,20.59932,19.80003,20.40736,20.53437,19.17932,19.44355,18.26514,18.70203,18.25508,19.27074,18.44857,18.07885,17.32374,18.54166,17.439,17.98691,18.37663,19.04803,18.09772,18.93938,18.97302,18.8466,20.4439,19.60131,20.01637,20.61761,20.19129,21.8247,21.5435,21.87524,23.13182,23.44996,23.8522,24.45138,25.39979,25.22449,25.4331,26.47623,27.47064,26.08866,28.53762,29.18748,29.85386,30.01555,30.20114,31.32277,31.52379,32.0141,33.1946,31.50295,30.8514,30.46683,30.15734,30.42473,31.3244,31.54467,31.12195,31.92561,32.86148,34.29109,33.42833,34.86211,34.38035,34.93301,36.34458,36.01718,35.69801,36.69756,36.71017,37.59716,38.27316,38.31217,37.93976,39.03914,39.22105,37.97638,37.39031,36.8069,36.16953,35.16344,35.02732,33.16608,33.23921,32.56135,30.98047,28.53765,26.44052,26.96402,24.57776,21.79703,20.66454,18.95015,17.65505,15.73174,13.13389,11.38879,10.22323,6.612748,5.155325,2.899254,0.8782849,-1.898003,-3.92828,-7.216339,-8.718765,-11.21102,-15.12673,-16.82741,-18.08157,-20.75095,-23.61287,-25.65208,-26.41661,-28.19648,-31.29882,-33.18585,-34.7158,-37.0451,-38.73354,-39.19974,-41.85143,-43.60692,-45.77041,-46.02462,-47.67602,-48.6429,-49.84257,-51.21452,-52.3452,-51.64805,-53.41016,-53.99571,-54.2979,-55.09147,-54.64392,-54.86905,-55.71931,-56.01711,-55.48231,-54.66007,-55.1897,-54.88946,-54.77949,-53.90456,-53.48921,-53.75497,-52.5238,-52.77829,-51.77594,-51.50657,-49.64569,-49.71777,-50.5715,-49.38042,-48.87813,-49.12376,-50.55546,-50.30199,-51.27709,-52.543,-51.68284,-49.55623,-49.4888,-49.35617,-49.11683,-49.52558,-50.20119,-49.99764,-50.0097,-51.52862,-51.41237,-52.49799,-53.67034,-52.88359,-53.58356,-54.74752,-54.40696,-55.27843,-55.63617,-56.16866,-56.0043,-56.59927,-56.52177,-56.45852,-56.52988,-56.80162,-55.93305,-56.38648,-55.60967,-54.49035,-54.37584,-53.69551,-53.29751,-52.86184,-51.28973,-49.8417,-49.31772,-47.09442,-47.21451,-45.25019,-42.92807,-41.54841,-40.36872,-38.04977,-36.41954,-33.02435,-32.35299,-30.6333,-27.1431,-24.47915,-22.50398,-20.46741,-17.63983,-15.18048,-12.27245,-11.15855,-7.661657,-5.085951,-2.644114,-0.9398641,0.9426993,4.797629,5.104671,7.93567,9.151633,11.35668,13.11418,14.31886,16.70378,18.70919,19.85243,22.09993,22.0257,24.28575,24.71849,26.37004,26.9255,27.14924,28.947,29.49278,30.44084,29.81681,30.09644,31.10493,31.28642,31.03818,31.18691,30.53887,30.53135,30.61118,30.12367,30.10001,29.30033,28.58757,28.43996,27.86047,27.70743,26.57725,26.83665,26.45635,26.22716,25.25951,24.48405,25.77646,24.98047,24.99324,25.95119,26.93865,26.85035,28.92805,30.61655,30.44899,29.62503,29.4442,30.57891,31.26237,31.34786,31.15469,31.17778,32.0806,32.22688,32.44493,32.92119,32.84504,33.76658,33.00891,33.51116,33.67952,33.65615,33.49427,34.73696,34.66638,34.12499,34.29502,35.09463,34.40767,35.72864,34.26055,34.9774,34.80145,34.49378,34.84055,34.48238,34.77689,34.62171,34.16254,33.8402,33.46648,33.57052,34.10286,33.84432,33.72683,34.19283,34.03537,33.73828,33.87299,33.78365,34.08416,34.0709,33.87671,34.82896,33.36417,34.04125,34.18772,33.28559,32.76284,34.30557,32.8036,33.31076,32.3338,32.45137,32.8675,31.16651,31.23311,30.73862,30.46171,30.76403,30.50698,29.92415,29.55949,28.2292,29.12841,27.90717,27.02273,26.85633,27.19585,26.56373,25.76854,26.09141,24.77936,26.49689,24.1977,25.11526,25.18124,23.61786,23.76876,24.46812,23.02152,23.06678,22.96406,22.61934,22.759,22.45201,21.40241,20.97984,17.6144,18.33102,17.20232,16.97716,15.50253,16.34593,16.72971,16.47997,16.20752,16.92053,17.18788,19.13801,17.75889,19.10596,19.4796,19.16918,19.89769,20.35225,19.64059,21.31421,21.19244,21.76532,21.36049,20.91685,21.35718,20.51147,20.52862,19.73019,19.28481,19.07285,16.5823,16.5011,16.07264,14.39986,12.74204,12.73257,11.1528,9.335886,7.206828,6.195144,3.79561,2.822998,0.01775454,-0.8769105,-4.153673,-5.792712,-7.178141,-10.25356,-12.61011,-15.32153,-16.80431,-19.19615,-21.06673,-22.8074,-25.34681,-26.98171,-29.01627,-30.60154,-34.16686,-35.82289,-38.28437,-38.88724,-41.9083,-43.02964,-45.36666,-46.91082,-49.22473,-50.48041,-52.07606,-54.46128,-55.7255,-56.30817,-58.72026,-59.30793,-61.01582,-62.00135,-62.64528,-63.32838,-64.57376,-64.2816,-65.07532,-64.5241,-65.22485,-66.16789,-66.14935,-66.27811,-62.71792,-62.15072,-62.55321,-61.01636,-61.00037,-59.96769,-60.51593,-59.35668,-59.77411,-58.84349,-59.78342,-59.08346,-58.7524,-59.91514,-59.63069,-59.09779,-60.44371,-60.86262,-61.65804,-62.14309,-63.75756,-63.76248,-65.6551,-67.15542,-67.84079,-65.98217,-66.34194,-66.93905,-67.04093,-65.5405,-65.78572,-66.24697,-63.89783,-63.55387,-62.89746,-61.0032,-60.97971,-57.8939,-58.41617,-56.08713,-53.81942,-51.69564,-50.11088,-47.09972,-45.82506,-42.63511,-40.90363,-38.34474,-35.76108,-33.90952,-30.53877,-27.65664,-25.52071,-24.75641,-21.30903,-19.35209,-16.70841,-13.0049,-12.15848,-9.217971,-6.893068,-3.261192,-2.511066,-0.3342317,1.777756,3.818805,6.5644,7.214984,8.396963,10.83682,11.05738,11.4596,14.01329,15.53876,15.58467,16.41149,17.25218,17.17972,15.48865,16.40198,14.46463,14.83631,14.88243,13.83526,12.21938,13.49017,10.67157,10.53038,9.203353,8.194669,7.9202,5.052586,4.012781,3.574963,2.621464,1.875632,1.464613,1.651776,0.4899108,-0.9662995,-0.06904787,0.8007745,0.2744993,0.2776059,1.392509,1.738008,2.571822,2.710303,5.314187,6.933567,8.925946,10.2054,9.992404,10.77883,12.23023,13.47578,14.16074,16.7365,17.33922,18.88597,20.59243,22.59676,22.84891,24.7207,25.66946,28.27987,29.86881,31.88416,33.07348,33.06453,35.49708,38.53053,38.32456,39.04999,41.76451,42.48312,43.14567,43.98607,45.44841,45.92227,45.33558,48.37091,48.21224,47.75191,49.90641,48.99312,50.25771,49.95265,50.11766,50.4092,50.47374,51.11491,49.46584,49.5009,48.59667,49.3309,48.34399,47.51574,47.00215,46.49837,45.84573,44.25916,42.46467,41.85289,43.4709,40.38001,41.16885,41.60644,38.79219,39.30285,39.10078,38.92258,36.16266,37.25204,37.00523,36.14889,35.32348,34.26204,34.1583,33.77969,32.80906,33.45397,34.02343,33.1693,31.14974,31.54906,29.59706,29.23067,27.57805,28.50838,27.19207,27.04904,26.94919,25.21474,26.04934,25.20211,23.74515,24.50195,23.84315,21.13957,21.34563,19.74826,21.67591,22.9584,21.1953,21.63975,22.75133,23.42019,23.83996,24.52949,26.46954,26.36354,26.4359,26.98741,27.70496,27.15555,27.86123,27.14845,28.70062,28.17161,27.85379,28.11701,26.97795,27.30107,26.82504,26.66344,26.83449,27.31853,26.44007,25.26045,24.22183,23.03034,21.26054,21.28504,18.56521,17.18098,15.19622,12.52882,9.912453,7.717458,6.408882,3.155805,0.8726712,-0.7855392,-2.933454,-6.437309,-9.066417,-10.54483,-13.14511,-15.6204,-17.84779,-18.63917,-23.37913,-23.46727,-25.22588,-28.59069,-28.49318,-31.33994,-31.27628,-33.40216,-34.08844,-35.59948,-37.06317,-37.51524,-37.44794,-38.19343,-38.59639,-37.82652,-37.38306,-37.77476,-37.21208,-37.34888,-35.62891,-34.80692,-32.42874,-32.52839,-31.59356,-30.19844,-29.40637,-27.72372,-26.87103,-25.93579,-26.11344,-23.06514,-22.23868,-20.71826,-20.3238,-17.979,-16.8146,-13.77264,-14.17076,-11.74742,-10.15669,-8.527408,-6.389327,-6.589984,-5.710854,-3.532426,-3.878796,-2.021592,-2.007543,-1.959997,-1.733862,-1.624459,-1.882415,-3.760754,-4.398225,-5.96927,-7.087939,-8.15348,-7.258848,-9.130669,-9.242565,-10.49573,-10.50244,-11.33763,-11.88333,-12.94201,-13.11393,-14.39163,-15.0916,-16.98149,-17.28578,-18.15653,-18.71197,-20.42208,-20.3197,-21.49958,-20.7248,-21.63319,-22.39334,-22.4242,-21.84562,-21.42278,-20.78402,-19.59297,-19.33853,-18.66069,-18.61918,-17.835,-17.17132,-17.18088,-16.98053,-14.65536,-14.38308,-13.54318,-12.83411,-12.93181,-10.94855,-10.21721,-10.0885,-9.236098,-7.302357,-7.208182,-6.423121,-6.165545,-5.052709,-4.38931,-4.12355,-2.74876,-2.287686,-2.249109,-2.209573,0.2003674,0.04935527,-0.2509165,0.4927167,0.8449111,1.916183,1.249484,2.004623,1.062551,2.283158,2.723319,5.234104,4.934697,5.685108,6.239513,6.687969,7.288788,8.236152,8.361495,9.249081,8.769459,11.73011,9.642543,10.02282,10.25304,8.890894,8.199434,8.536026,8.092754,7.672408,9.620442,9.154705,9.26247,8.50626,9.23812,10.15398,11.0153,11.07431,12.57478,12.29382,13.7756,13.46046,13.22313,13.85532,14.59806,14.26908,15.47833,15.04527,14.82736,14.85727,14.88192,14.43952,13.95957,13.34891,13.47778,13.75611,12.83396,12.98605,11.96506,11.72484,11.31242,11.14074,9.851672,9.51605,7.908345,7.540533,6.342422,5.484784,3.894012,3.148487,1.551161,0.3443325,-0.6921711,-1.427016,-4.051119,-4.585074,-6.240285,-7.313269,-7.494448,-9.558513,-11.21608,-10.75935,-12.1044,-13.19523,-13.89352,-15.51073,-15.87381,-16.46836,-17.0893,-18.23294,-17.14044,-18.98737,-19.71649,-20.23613,-21.22112,-20.93958,-20.86582,-21.93565,-21.19297,-22.19381,-21.95891,-21.52319,-21.6276,-20.71984,-22.01746,-20.2386,-19.63267,-19.96393,-19.41889,-17.71777,-16.33974,-17.10503,-16.48818,-14.44555,-14.36392,-14.0329,-13.64681,-12.26261,-12.47909,-10.94311,-10.77922,-9.53778,-9.880936,-9.784545,-8.66725,-8.34206,-8.149416,-7.253017,-7.519207,-7.876683,-7.074613,-6.273028,-7.541191,-7.19712,-8.614961,-8.628236,-7.707343,-6.634596,-7.130165,-6.834844,-6.045028,-6.100419,-5.048712,-4.498538,-3.630592,-2.155305,-1.171497,-0.08781457,1.27818,2.955324,4.508871,5.363001,6.960027,9.528037,10.28787,12.05455,14.10897,16.42749,17.45084,20.33471,20.63122,23.08202,25.14076,27.47939,28.87135,30.35794,31.73263,34.89892,35.37954,36.84645,38.40394,39.29919,40.75646,41.35305,42.61922,43.40239,44.9511,45.27469,46.10721,46.58634,46.11255,46.88649,46.59661,46.75001,45.51578,45.40844,45.25463,45.82945,44.7437,43.26579,42.79704,42.67963,41.07077,39.74012,38.63067,36.10515,34.64838,33.94755,31.97527,28.80838,27.8005,25.03806,22.69857,20.66143,17.12019,14.99978,12.94226,9.216691,7.430313,4.206592,2.562502,-0.3905023,-3.108131,-5.210883,-7.607149,-9.135918,-12.55688,-13.55121,-15.59884,-16.47213,-19.48024,-22.12704,-22.06813,-24.23579,-26.39245,-28.01876,-29.41593,-31.53534,-33.6341,-34.19904,-37.19689,-39.97689,-41.92717,-43.89796,-45.7244,-48.431,-50.26054,-52.00389,-53.88923,-58.17928,-59.67969,-63.40652,-64.97869,-67.49619,-71.15317,-74.52491,-77.80657,-80.8663,-83.26349,-87.13108,-90.42748,-93.56086,-94.09247,-96.65213,-98.49441,-100.3822,-101.3485,-101.0348,-100.9429,-102.4997,-102.3783,-104.3282,-104.1799,-102.095,-104.6944,-103.4246,-101.6841,-100.1083,-97.6719,-94.69688,-92.43905,-87.73256,-82.17648,-76.39407,-71.38578,-64.86627,-58.41036,-49.48504,-42.01832,-33.63912,-24.92248,-16.10786,-5.727016,4.92138,15.06912,23.51312,34.916,44.06795,54.40571,62.68535,71.4815,80.6976,90.95599,99.98797,107.6883,115.751,124.1081,131.8794,138.3832,144.6496,149.4757,154.0646,157.8317,161.8386,163.7162,164.376,166.6714,168.1407,167.1334,166.3334,164.8678,162.0399,159.194,155.6599,149.6516,144.4512,138.7185,133.6169,126.3637,119.9452,112.672,104.6669,97.83624,90.77698,82.43405,75.19608,67.70657,61.12033,53.4237,47.338,38.26141,31.6693,26.45675,19.16946,13.56538,5.162084,0.1869058,-6.285699,-10.85626,-14.95605,-22.79599,-26.17639,-29.51992,-31.04714,-35.56575,-38.27332,-39.94931,-42.61315,-44.03976,-45.66562,-45.95475,-47.77668,-46.29982,-47.68578,-47.70994,-48.53326,-46.89254,-45.55405,-44.46924,-43.44299,-41.61444,-39.43234,-36.17568,-34.14058,-32.31579,-30.75063,-28.38343,-26.81463,-26.41232,-25.44312,-26.08192,-27.83772,-26.07531,-26.72723,-28.44136,-29.64972,-29.60001,-31.61753,-31.32957,-33.9416,-34.18329,-37.04517,-35.91013,-37.98431,-39.41347,-40.72684,-42.02962,-42.48781,-43.79867,-44.66331,-45.33456,-47.39547,-47.17152,-47.96088,-49.43361,-50.49467,-51.0181,-52.38028,-52.59757,-52.38673,-52.91089,-52.45545,-51.52952,-52.59985,-51.66547,-51.57537,-51.71281,-50.61447,-50.64759,-50.40285,-51.32327,-51.40156,-52.0252,-49.32977,-50.41761,-49.77927,-49.30084,-49.70896,-48.47727,-48.52165,-49.65529,-49.86204,-50.26969,-50.69538,-51.70705,-49.71019,-49.46355,-49.12697,-49.24888,-46.58648,-47.5412,-46.89997,-45.06137,-44.04773,-42.33695,-40.97706,-41.09995,-39.81374,-38.08252,-36.39479,-36.76202,-33.71782,-32.94977,-31.53826,-30.37136,-29.09491,-26.36097,-25.64117,-23.32814,-20.51666,-21.32587,-17.95599,-16.8305,-14.54135,-13.69063,-11.21663,-9.610002,-9.003675,-6.102532,-3.706815,-3.698091,-1.03871,-0.6618006,1.303493,3.744322,5.671506,6.44357,7.781312,9.172715,12.08517,12.99899,13.94362,15.98533,17.27684,18.04197,20.07511,20.76383,21.97474,23.12039,25.1043,25.11551,25.84621,27.33329,26.71423,28.4072,27.74102,29.01733,28.57867,29.24009,29.95722,30.34713,30.71868,31.53821,30.95127,31.70324,32.37473,31.69243,32.12225,32.87705,32.87273,32.84658,32.11678,32.88505,32.0495,33.07519,33.06515,32.38983,32.95453,32.87093,33.67899,33.25611,33.23247,32.95017,33.72491,33.47425,32.30824,33.16513,32.95265,32.28613,32.83833,32.19084,32.39464,32.14246,33.51155,32.38532,31.93623,31.89067,32.17273,32.1907,31.62818,31.62535,32.7504,31.627,32.30448,33.01079,33.85384,33.04487,33.2991,33.9209,34.26497,33.6041,34.51372,33.90248,34.31025,34.3011,33.79164,34.51583,33.89747,34.00137,33.924,33.70835,33.10702,33.15267,33.55374,33.35904,34.08072,33.25637,33.02655,32.84746,33.28343,31.92254,32.66208,31.6105,31.73395,31.76218,32.0052,31.52076,30.35644,31.60209,30.83189,30.94592,31.0927,29.49594,31.71379,31.03997,30.09878,30.19765,29.88074,29.98786,29.85881,29.93431,28.81653,29.42218,28.58601,29.07096,29.40306,28.02075,28.13177,27.65158,27.87959,26.40785,26.0179,24.74198,23.94905,23.93014,22.97376,22.30185,20.77533,21.67097,19.88489,19.54441,19.20259,16.91198,17.59416,16.00336,15.63207,14.05884,13.8617,12.92958,11.85085,11.56928,10.05582,9.233158,7.546183,7.74846,4.686368,3.64329,3.846428,1.070154,2.107008,1.028617,0.5009367,-0.02830341,-0.3282093,-1.583347,-0.4593498,0.05163723,-2.06585,-1.224552,-0.6903512,-1.556779,-1.97869,-0.9530484,-2.424181,-1.806064,-2.340898,-1.83262,-2.622443,-3.281868,-2.840759,-3.159743,-3.138555,-4.97421,-4.48838,-5.240274,-5.148203,-5.805377,-6.641733,-7.95611,-8.321559,-8.469006,-10.48002,-11.42902,-11.52066,-12.20665,-13.8033,-14.18036,-15.87203,-16.97929,-18.29991,-19.31904,-21.14001,-21.47683,-23.65326,-24.56883,-26.11677,-28.22367,-29.13813,-30.8131,-32.04754,-34.3648,-34.85556,-36.71191,-37.59257,-38.54428,-40.39045,-42.76383,-42.98525,-43.81425,-45.69894,-45.89984,-47.51249,-48.96016,-49.82572,-50.86307,-51.82701,-51.53562,-54.32434,-53.78845,-54.86691,-55.24562,-56.34513,-56.78084,-57.34213,-57.48316,-57.63252,-58.75388,-58.41925,-59.2178,-59.62196,-59.36575,-59.6244,-59.57699,-60.64283,-59.43094,-58.34014,-58.31851,-58.95999,-58.49356,-59.10379,-58.03086,-57.60761,-58.81507,-57.59335,-58.61973,-58.2697,-57.30001,-57.94159,-57.84868,-58.32087,-57.80538,-58.2488,-58.18773,-59.45468,-58.64583,-58.89908,-57.04652,-56.71909,-56.48759,-54.10079,-53.7458,-51.83686,-51.12069,-49.40193,-47.52077,-44.62395,-43.8542,-41.22918,-39.09944,-36.7605,-34.57562,-30.84055,-28.49555,-26.48864,-22.77391,-20.38942,-16.58294,-13.9517,-10.74173,-8.242171,-4.71549,-2.154185,1.351376,3.570887,6.603463,9.196961,10.78244,13.96399,16.17548,18.18755,20.35559,21.75858,24.25033,26.01129,26.257,27.64845,29.72791,30.1692,30.0481,30.42043,31.59669,31.75332,31.54886,31.17811,32.01401,30.05169,31.64188,30.49244,29.17451,28.24395,26.54475,27.17913,24.33873,22.52728,21.32637,18.83401,18.7568,16.49478,12.72823,11.52612,9.434995,7.758438,5.870999,1.96767,1.039353,-1.341538,-3.180054,-6.664688,-7.978094,-11.2306,-13.96186,-16.08839,-17.8455,-20.69347,-22.83957,-23.91603,-26.63679,-27.93145,-29.61955,-31.977,-33.41254,-35.13569,-37.40736,-36.86459,-36.51609,-36.72772,-37.03608,-37.09986,-33.55847,-32.94267,-31.30034,-28.21445,-28.19298,-24.1213,-21.84836,-17.32289,-11.95852,-10.01456,-6.322551,-1.052991,3.680621,8.900257,14.30293,20.98386,25.61918,30.33113,37.41944,43.12328,48.48562,54.48695,64.1601,69.93455,77.06323,79.7225,86.51995,88.99625,93.47727,96.94916,99.76702,101.9901,107.2413,109.8967,108.3985,110.0024,110.6322,110.0949,110.3025,106.9711,106.2276,102.6587,100.5109,97.66663,94.71643,90.79283,87.65294,81.64434,78.73089,75.22901,71.3855,65.84343,62.48234,59.46657,54.64057,51.67634,49.3177,47.94833,45.94973,44.99856,43.28035,43.01649,44.0667,43.45608,48.2051,48.46988,47.34952,46.68339,49.66066,47.7098,47.96263,46.6089,45.99764,47.82076,44.32472,46.08263,46.24134,45.60082,44.82136,45.43445,46.61179,48.84224,50.52674,52.09543,54.30474,56.02461,61.20968,62.47161,66.21679,68.64137,72.56381,74.09827,76.98208,80.17349,82.94602,83.29055,85.98421,87.32667,88.03028,89.65112,88.98391,86.64164,86.62065,83.90694,84.1762,82.59244,78.90597,77.67443,74.68765,71.22394,69.19254,62.86875,59.49622,55.29095,50.96347,47.30489,43.00655,37.61247,33.2169,27.54877,24.29119,20.9187,16.13139,13.51627,10.27153,7.736333,2.539019,0.07695814,-0.9419906,-2.05407,-4.614652,-4.100762,-5.234538,-8.804871,-10.47544,-13.29324,-13.29136,-16.77898,-16.68399,-18.23401,-19.33649,-20.96743,-21.82044,-26.96512,-30.75683,-31.77943,-35.68015,-40.38416,-44.57445,-49.56811,-53.01833,-59.38537,-64.97105,-68.96797,-75.66197,-81.17438,-87.34289,-94.44439,-99.1357,-104.6525,-109.6255,-116.4186,-120.2662,-125.4441,-128.6193,-129.9207,-133.3594,-136.8614,-136.8312,-138.8454,-140.1966,-140.7554,-140.8068,-141.8083,-140.8496,-145.5644,-147.6335,-147.5385,-149.2525,-152.2523,-153.5837,-156.694,-158.7066,-161.3668,-164.42,-164.1115,-168.3172,-170.0778,-172.7496,-171.346,-173.6798,-173.9676,-174.9525,-175.27,-173.4321,-173.241,-172.5878,-171.7858,-170.1595,-168.5547,-166.4071,-164.6069,-162.9933,-160.1625,-156.2618,-153.966,-149.1374,-147.0429,-142.9271,-139.9003,-137.1467,-133.9282,-129.2404,-126.8678,-120.6128,-116.8648,-111.7872,-106.9923,-103.1692,-98.59023,-92.34492,-87.25036,-83.13168,-77.39785,-72.05842,-65.83333,-60.59545,-56.07845,-49.67745,-43.68879,-38.65593,-32.95856,-27.98462,-22.56305,-17.74201,-11.94236,-7.85144,-3.854086,1.894488,7.327491,9.748582,16.33238,20.72305,24.79999,29.20987,34.59305,37.89356,40.9243,45.24987,50.39594,52.80052,56.90152,59.30775,61.79944,65.50797,68.35263,71.27613,71.88093,73.88418,76.14142,78.32323,79.30037,79.56101,81.74397,82.25237,84.20714,85.08001,84.15419,85.13157,86.00874,86.35491,86.03678,86.74675,85.84739,88.28428,87.20124,86.86401,87.61841,88.19356,86.91601,88.16754,88.07697,89.18024,89.08269,89.68463,90.70273,90.46147,90.5178,90.90247,90.70709,90.79344,90.66323,89.57352,89.27688,90.02258,90.12316,88.98968,89.19188,88.80009,88.94418,88.12228,88.42846,87.53366,87.82467,87.73406,85.94345,86.84869,87.04991,84.99269,86.08855,83.94602,84.68583,83.49494,82.928,82.91784,81.58452,81.50194,79.47357,79.61157,77.2712,77.15984,76.95973,74.94006,74.52663,73.17162,72.5643,70.72035,69.80463,68.90771,67.40667,66.63463,65.62294,63.12481,62.99626,61.50448,60.10551,58.98948,57.52443,56.32989,53.84904,53.17996,53.38876,49.84763,49.64225,47.1567,47.04468,45.14821,43.51728,43.03639,40.99604,40.33511,40.51327,38.55697,36.04461,35.28392,35.9982,33.75801,32.71501,33.45673,31.55336,31.60288,31.42018,30.2069,30.28734,30.2318,29.73325,29.63128,28.39196,28.43936,29.4475,29.02517,28.12115,27.86727,27.78809,27.22768,25.27488,25.88011,23.36708,23.29692,22.02367,20.90205,19.5575,18.39667,17.35317,16.20039,14.36292,13.8797,12.14385,9.879357,8.837545,7.619541,5.050297,3.361671,2.551832,0.3912066,-0.9544848,-2.51609,-3.536354,-5.323476,-7.479439,-8.052165,-10.51185,-11.43371,-12.8215,-13.57306,-15.31851,-16.33961,-17.26372,-18.47931,-21.48698,-20.78777,-22.4447,-23.54878,-24.63253,-25.88306,-27.15192,-26.07734,-28.11075,-30.2774,-29.5286,-31.41528,-30.72243,-31.81507,-33.22221,-32.63638,-34.57493,-34.30312,-35.1137,-35.88544,-37.21646,-35.8316,-36.93792,-38.20361,-37.47089,-40.33875,-38.70046,-39.42744,-39.66428,-40.26664,-42.20976,-41.68255,-42.06028,-42.45426,-43.17059,-43.53524,-44.81536,-44.22716,-44.97572,-46.35429,-46.94104,-46.5492,-48.11923,-49.11413,-49.24243,-51.6045,-51.61913,-52.20843,-53.36957,-55.65708,-56.15125,-57.61253,-58.33516,-60.58266,-61.22453,-61.82028,-62.37496,-64.66811,-63.5821,-65.0584,-65.93246,-65.65301,-66.48717,-65.93835,-65.3049,-64.96947,-64.56517,-63.90133,-62.69064,-63.52546,-61.61685,-62.70433,-62.08327,-61.46352,-61.30625,-61.48494,-61.44261,-59.53608,-60.01986,-58.79441,-59.37002,-59.42027,-57.44741,-57.64,-56.13155,-57.27117,-55.02135,-54.896,-55.18875,-53.50112,-53.17077,-52.87917,-51.12192,-49.58354,-47.61516,-47.49755,-46.39004,-43.81361,-41.94531,-41.24901,-39.32305,-37.45565,-35.95418,-33.06773,-31.41844,-29.26926,-28.35291,-24.51369,-23.11129,-20.72353,-18.91247,-15.9549,-13.68534,-10.5826,-8.871543,-6.194109,-4.20923,-2.862796,1.279451,2.855326,6.915683,7.684584,10.90838,13.6258,15.89394,18.78985,18.80079,24.23503,24.91073,28.35562,29.43211,32.20938,33.00167,35.49653,37.46341,37.37814,40.33176,41.19696,42.56526,43.265,42.95367,45.58162,45.95182,47.31288,47.40999,48.45282,48.78277,50.09294,49.99647,49.97694,49.23748,49.47522,49.04537,49.86027,47.65358,47.62373,46.45507,46.64655,45.01939,43.78163,43.65615,40.29517,40.62345,39.31908,38.12864,36.40802,35.12196,34.17137,34.3432,30.85018,31.23024,29.86916,29.63606,28.68609,28.43661,26.00982,24.66134,23.22699,22.72088,21.25039,17.96756,18.68479,15.73193,16.09494,14.21866,11.22818,11.64059,10.01968,8.36281,8.279953,4.709339,5.12765,2.95455,3.46575,2.210331,0.5402897,0.8153015,-1.176306,-1.37847,-1.651124,-2.254742,-4.751121,-2.987428,-4.912443,-4.264602,-5.752426,-6.346947,-6.094461,-6.523486,-7.234782,-7.379101,-8.367667,-8.608681,-7.850347,-8.576274,-8.452825,-9.189251,-7.5338,-8.845803,-7.233187,-8.414255,-8.388418,-7.069342,-8.439972,-7.784472,-8.06283,-7.081843,-7.161297,-4.819748,-5.239037,-4.094133,-5.005567,-3.311969,-1.547491,-1.838985,0.085579,-0.9474876,1.913925,2.185888,3.594943,3.245085,3.233674,5.344407,6.03799,6.72177,7.097354,8.119951,8.67229,9.902725,10.37915,11.2835,13.68264,13.09483,14.55187,17.08802,17.39082,18.09343,18.57512,19.99737,21.13492,21.51172,22.41498,22.63377,24.44358,24.32308,25.42946,25.08665,25.44894,27.16826,27.06459,26.58821,26.0036,27.47977,27.94509,27.43978,28.29935,28.78514,28.48913,28.96041,29.46934,30.13555,29.34416,29.55859,29.19091,30.71436,28.64101,29.83539,28.02737,30.03049,28.81439,27.1958,28.78327,26.62993,27.29084,25.40254,24.75982,25.77523,22.12546,23.01788,22.38881,20.33435,20.47795,18.44009,19.33414,15.33392,15.93442,13.8151,11.78005,11.2929,9.359767,8.806694,5.393058,5.890551,3.136454,3.405796,-0.2651098,-0.7268286,-2.640943,-4.200241,-5.253002,-7.210686,-8.228544,-9.815712,-10.96302,-12.16461,-13.39877,-15.47393,-15.88287,-17.35282,-17.72081,-19.99127,-20.53095,-22.1872,-23.20058,-23.16501,-24.68343,-25.21347,-27.07266,-26.3531,-27.41683,-28.6757,-29.72962,-29.50387,-29.68194,-30.89845,-29.97066,-32.71156,-31.50893,-31.52955,-32.17307,-32.66227,-32.24575,-31.77803,-32.07464,-30.84776,-31.37989,-30.95147,-30.51032,-30.20958,-30.87427,-28.79928,-29.32097,-29.89041,-27.41412,-27.3062,-27.51561,-25.88862,-26.66277,-26.18892,-24.78646,-24.01232,-25.59961,-23.65728,-23.94418,-23.24538,-23.576,-23.22829,-23.16547,-21.15117,-22.75777,-22.53846,-22.8485,-22.66331,-22.52089,-22.25213,-22.4782,-23.04934,-23.67035,-24.0562,-23.09578,-24.38851,-24.97148,-24.42529,-25.9811,-24.0542,-25.65756,-24.4673,-25.14118,-24.66885,-25.02696,-24.80432,-24.59978,-24.46623,-25.34978,-24.16476,-23.82389,-23.45222,-24.78984,-21.89719,-23.14546,-21.16008,-21.67408,-21.6543,-21.14537,-19.47449,-18.18745,-18.64832,-17.11384,-17.27218,-16.01232,-15.42873,-13.78701,-14.11576,-12.54499,-10.82733,-12.00721,-8.749223,-10.21535,-8.344098,-7.081182,-6.975327,-4.429803,-5.688205,-3.141461,-2.492383,-1.227458,0.8896799,1.841823,2.348365,2.605504,2.774226,5.434265,5.461626,5.124914,8.199585,9.451273,8.553065,10.13855,10.99161,12.2632,12.4051,13.18766,13.39492,14.92859,14.61285,14.50166,14.50058,15.25151,14.24494,14.33969,14.22015,14.33338,12.36464,13.54738,11.86714,10.85367,8.925804,7.891873,6.590769,5.208637,4.336781,2.789687,1.728623,1.160153,0.9462793,0.5053872,0.1254596,-1.892614,-2.13467,-1.07809,-2.775048,-2.399759,-2.93374,-2.325247,-2.115028,-2.325575,-1.235672,-2.323952,-0.9575205,-2.413242,-1.358776,-1.976978,-0.9865061,-0.8066087,-0.4770775,0.5883222,0.4494341,1.935355,-0.02551676,3.106041,2.486851,3.868938,5.601795,4.533053,6.942681,7.946999,8.350922,8.786022,8.90987,11.29626,11.93525,13.18392,14.23675,14.10291,16.29614,16.62163,18.21382,18.63378,20.74424,21.04778,23.14584,23.76305,25.00459,25.94824,28.72732,29.17245,30.09735,31.95235,32.09217,35.19284,34.72963,37.7983,35.4426,37.85417,38.69676,39.36164,40.29459,40.16989,40.86749,40.8961,42.00568,42.07742,40.30954,41.56828,40.13964,41.57627,39.73118,38.6605,37.13195,37.58025,36.22966,38.04842,35.05421,34.71874,36.01172,33.58856,32.62719,34.19198,31.93351,32.75179,29.77619,31.37605,29.23893,28.39574,27.39802,26.50202,26.0634,25.69226,22.65565,22.79718,22.55758,20.46979,19.34277,18.71592,15.39,15.64588,12.36601,13.88857,10.8582,9.032659,9.492238,8.881705,6.108349,5.733019,5.156311,3.44188,4.459323,2.522331,3.031987,1.321566,3.377307,2.192127,2.098973,2.756556,1.186811,1.9604,2.145325,2.087537,2.349852,2.374285,3.635069,3.682463,4.34099,3.237822,5.856897,5.192695,5.435162,6.654941,3.659152,8.158033,5.979113,8.343481,6.213486,6.365806,6.234034,7.129701,5.002844,5.053502,3.869008,3.540808,2.710337,2.350918,1.07007,-2.025917,-0.9928189,-3.138406,-3.412706,-5.715898,-6.914177,-9.179945,-9.083338,-10.64622,-12.26823,-14.13052,-14.57103,-15.99644,-18.55548,-17.46979,-20.27593,-20.45361,-23.27615,-22.36653,-24.42946,-24.62611,-26.03109,-26.54065,-27.37741,-27.34525,-30.99843,-29.87761,-31.24611,-32.22522,-33.42388,-33.61463,-34.86163,-34.66185,-35.42611,-36.18756,-36.05657,-36.79106,-37.85938,-35.96426,-37.37722,-38.096,-37.48644,-37.53228,-36.90788,-36.20047,-37.42394,-36.27885,-37.4555,-34.70933,-37.03943,-34.41643,-32.74412,-33.77293,-32.54198,-31.33564,-32.84377,-30.4549,-30.6883,-30.53178,-30.00303,-29.95808,-30.92936,-28.82869,-31.24413,-28.61286,-32.09935,-31.43318,-30.44712,-33.51711,-31.69608,-32.26602,-33.5658,-30.84051,-31.71156,-32.44461,-31.22518,-32.14169,-30.41308,-31.09589,-29.93672,-30.98505,-28.89242,-29.594,-27.97057,-26.94397,-26.32472,-25.85985,-24.4781,-23.60867,-22.72523,-22.70651,-19.30703,-21.40824,-17.40777,-17.82049,-17.5771,-13.71768,-14.29861,-13.64273,-11.39721,-10.74777,-10.33055,-7.348269,-7.726655,-4.923995,-4.385564,-2.819647,-0.979743,0.8239161,1.205805,3.561222,5.621319,5.606175,8.277461,8.15469,10.78121,10.62765,13.31522,13.01028,14.38744,15.89365,16.02501,18.14726,18.22507,21.20582,19.27815,21.59702,20.31758,23.71321,22.74509,22.52916,22.62513,23.56224,24.80754,21.98667,23.76315,23.85471,23.42308,23.26683,24.17674,24.04921,23.06214,23.6474,23.04866,22.53744,22.86099,21.32949,20.94349,22.08698,20.47711,19.77403,19.7066,17.45616,19.03005,18.13114,17.35306,18.05397,17.25676,17.45516,16.53267,19.06004,16.77797,16.81141,16.56778,16.54188,14.78131,14.5263,13.05607,13.80557,11.6829,10.9397,10.79469,10.88649,9.811502,10.02609,9.218714,9.095788,6.796058,7.645725,8.518617,6.184648,6.054024,6.761437,4.952373,5.644885,4.720964,4.227295,3.793477,5.010516,3.018153,4.372379,4.318284,2.969402,4.396272,4.667159,4.137851,2.649286,4.181118,3.223188,3.474866,3.668396,4.603462,2.856085,4.061789,3.930635,4.129358,3.798494,4.139804,3.802286,5.455407,3.872566,4.319704,5.129926,4.732045,4.656527,5.464473,5.088069,5.011965,5.42777,6.646266,6.643034,6.040246,5.467434,6.885999,5.952153,7.726455,6.008814,6.769837,7.50778,8.048046,7.594467,7.811872,7.670245,7.948821,7.98801,7.470664,8.784115,7.449345,9.024338,8.195129,8.315732,8.524987,8.091177,9.433002,8.122513,11.53797,8.858917,10.11831,9.719452,11.53517,10.40926,10.12642,10.25023,10.93347,10.18955,11.66403,9.981727,10.77635,11.42358,10.43626,11.6785,10.32079,11.40227,11.33478,9.492909,10.78591,11.31979,9.442097,11.13391,11.53411,12.41634,11.62533,12.13037,11.58391,12.03207,12.09381,12.8087,12.27001,13.46737,12.95357,15.42733,14.22216,15.33314,14.97569,14.41333,16.99902,13.78414,14.81351,16.88723,13.839,14.73414,13.51563,14.04862,12.72168,12.33007,12.50677,12.26014,10.38565,10.41526,9.144786,9.695284,7.656856,6.932298,5.874931,5.484722,4.069091,3.154766,2.337506,0.9675239,1.214495,0.05535951,-1.014319,-3.061884,-4.036965,-4.328732,-5.380678,-7.194994,-7.998845,-10.17389,-10.74563,-11.60952,-12.66199,-13.65613,-14.17957,-16.34772,-15.42042,-18.47531,-18.1675,-19.65812,-20.44812,-21.88879,-21.77203,-24.26519,-23.12639,-24.53048,-24.89145,-26.22322,-25.99286,-26.55442,-27.30744,-27.68113,-26.94886,-28.65976,-28.9069,-28.17753,-28.33801,-28.21053,-29.62398,-28.10562,-27.82363,-26.51493,-27.75464,-27.05259,-25.50869,-27.12874,-25.15775,-27.47218,-25.71954,-27.41497,-26.62803,-26.57549,-27.43381,-27.13829,-26.7093,-28.24505,-26.4806,-28.4104,-27.43345,-29.47825,-29.14639,-28.93452,-30.61785,-31.15195,-32.97443,-32.48968,-31.10531,-31.2409,-32.49055,-31.59015,-32.277,-30.41619,-31.55794,-29.62577,-30.41306,-30.03991,-27.42762,-27.42351,-27.25347,-25.60436,-25.11823,-23.36049,-22.92536,-20.24369,-20.61437,-19.05439,-15.84201,-16.66037,-13.49919,-13.50308,-12.25467,-9.207399,-8.336266,-5.983858,-6.703901,-3.866944,-1.111952,-2.484682,-0.4624545,1.57335,1.596354,4.045136,4.470536,5.185797,6.461954,7.315129,8.346299,9.387993,9.183946,9.593502,11.00198,11.07166,11.25635,10.98388,10.88548,11.73419,11.93337,9.738185,11.86659,10.03565,10.67664,10.06251,10.04182,8.361382,9.527292,7.95476,6.820547,7.721905,6.098276,3.370675,4.480262,3.749695,2.194434,0.3818184,0.3871199,-2.131346,-2.71987,-3.838686,-5.402272,-8.128092,-9.290344,-9.754339,-12.64855,-13.26288,-14.35142,-16.35943,-15.9872,-17.21792,-18.22249,-18.26752,-19.92197,-21.33461,-22.76041,-23.28388,-25.34855,-26.90937,-26.5434,-28.79952,-28.58468,-31.35155,-31.15484,-31.67629,-33.22509,-32.50095,-32.08749,-33.73038,-30.93369,-32.53344,-30.04021,-30.82569,-27.88984,-26.99258,-25.56508,-23.94325,-21.9391,-19.36402,-17.30188,-14.56839,-13.4811,-10.44461,-7.78926,-3.12696,-1.475668,3.128198,5.32516,9.996714,14.51727,16.95695,23.03006,24.00354,29.05193,33.30267,38.02625,39.40089,44.38791,48.23671,52.21437,56.71288,59.03044,62.37537,66.53802,67.69313,70.98337,73.07203,74.08784,76.94967,77.17635,77.0462,80.22104,78.57352,78.24226,78.71838,77.52021,77.03676,74.74035,73.41605,70.85499,69.24488,66.91293,64.03277,61.85707,58.12587,54.52896,51.93452,48.32558,45.07907,41.00051,37.23406,35.43661,30.31571,27.28196,23.95209,21.79944,18.31002,17.36468,12.20648,10.50626,9.944889,4.878743,3.204441,2.67716,-0.4002005,-2.676174,-3.062215,-4.309736,-6.111869,-6.458945,-7.653021,-9.075182,-7.257648,-7.465849,-7.201142,-7.669978,-4.324035,-5.163685,-3.95508,-1.084568,-2.61411,1.470518,0.1488226,2.397628,4.015458,5.469498,6.43041,7.452661,9.132804,9.975974,10.36331,12.17039,11.1494,13.7682,13.72369,15.33292,16.68484,17.92282,15.95364,18.95931,16.36372,19.05033,16.49397,17.60672,16.55335,17.70123,16.38142,15.64226,14.75961,14.03506,12.8924,11.29426,11.74386,9.64242,9.610387,5.467632,6.408021,5.12951,2.21319,1.572257,-0.2983759,-0.9129617,-5.045012,-4.10915,-6.175975,-7.345249,-8.828528,-9.087561,-10.56788,-11.58758,-12.35438,-13.87875,-14.23585,-16.354,-17.99403,-17.92925,-19.16689,-20.18396,-21.65976,-23.46428,-23.16356,-23.46387,-25.59591,-25.85069,-26.09477,-27.18465,-27.20268,-27.93825,-27.8376,-29.58726,-28.62103,-29.15505,-29.94353,-29.36993,-29.67701,-29.27287,-29.12724,-29.59252,-28.47909,-29.40703,-28.28575,-26.67512,-27.73118,-26.59741,-25.94432,-23.79148,-24.75389,-22.65559,-23.02836,-22.15236,-20.51814,-21.46437,-19.1355,-17.89816,-17.236,-16.85813,-14.56151,-14.71106,-14.82924,-14.03849,-12.88972,-11.95726,-10.61866,-11.7933,-12.16122,-9.546949,-9.416768,-10.59511,-9.617466,-9.874757,-9.13939,-8.294419,-10.28113,-8.375635,-8.763,-8.611835,-7.962519,-8.350431,-8.344009,-8.393883,-7.58952,-6.376448,-6.946304,-5.73098,-7.179921,-4.923313,-5.967728,-3.925832,-6.222543,-3.489076,-5.252958,-3.735648,-3.193959,-3.25676,-0.97343,-1.358869,0.01566832,1.126475,1.884463,3.432046,2.391581,2.790994,7.634711,4.65891,8.125111,7.359748,10.76773,10.77092,11.50731,14.24027,13.69508,17.78239,17.54961,18.08033,24.18279,21.57757,26.45938,27.59246,30.63825,28.9537,32.08183,34.61932,36.49892,35.70887,34.59086,35.33508,31.69928,31.29094,28.80464,24.52332,24.16883,19.95384,16.61368,13.72618,11.17355,4.763593,4.976369,0.02942741,-3.179306,-6.705783,-8.130836,-11.43603,-12.87689,-15.88283,-19.62279,-21.62731,-24.47291,-24.69066,-27.29527,-29.14751,-30.31329,-30.35389,-32.69853,-30.88295,-32.91963,-32.76396,-31.36872,-31.15259,-30.32965,-28.79584,-27.12378,-25.25764,-22.93079,-19.82836,-19.4,-16.4701,-12.15989,-10.98836,-7.426646,-4.687302,-1.496814,1.120616,5.623464,8.248032,9.995955,15.95019,16.67593,21.06801,23.73961,28.37454,28.90651,34.75502,35.21701,40.67228,42.46026,45.25599,47.53164,49.56659,52.86879,54.26379,56.3915,56.13232,59.58609,58.4912,59.99804,60.68201,59.60952,61.41964,59.38287,59.05268,56.83292,55.69361,56.27052,53.33588,51.79116,48.68509,46.41289,44.46675,40.44433,37.40727,33.29188,30.53817,30.39134,21.84877,21.17447,15.97829,13.94302,9.818026,8.748034,6.269261,1.87336,2.507452,-1.727793,-0.6944176,-0.435613,-5.748189,-1.114792,-4.760995,-4.488535,-8.122207,-5.731862,-7.060224,-9.654395,-12.13644,-15.632,-14.41524,-19.39653,-18.17197,-21.1918,-23.88573,-22.84674,-28.20116,-26.51679,-30.11886,-30.76955,-33.45492,-32.52094,-36.58285,-35.84745,-39.49614,-39.95282,-44.08307,-43.8142,-47.67546,-49.13765,-51.38873,-55.07055,-55.81923,-59.38453,-61.44508,-65.00166,-66.47916,-70.99403,-71.88546,-76.24867,-79.57211,-80.64198,-86.27238,-87.16177,-90.45129,-94.83561,-96.87675,-100.0516,-102.5898,-105.9266,-108.1983,-110.7171,-115.4017,-116.4719,-119.9459,-123.0266,-125.0306,-126.8914,-130.7427,-132.5434,-134.006,-139.0996,-138.754,-142.592,-142.5182,-146.7006,-146.2021,-151.1936,-150.8948,-153.2828,-155.4546,-157.2347,-159.5029,-159.8556,-163.2285,-164.975,-167.0972,-166.7289,-169.8824,-171.8823,-174.3286,-177.0816,-178.544,-181.6242,-183.3709,-186.0474,-187.9643,-188.0818,-193.0861,-194.7013,-195.698,-198.988,-198.4306,-201.5612,-202.2711,-205.6193,-208.2388,-211.6162,-215.5358,-216.8661,-222.55,-225.646,-228.448,-233.006,-234.8899,-238.4129,-225.2924,-228.1464,-222.4285,-221.5703,-219.5649,-218.2231,-218.9389,-216.8693,-226.9921,-220.0341,-217.9678,-216.6104,-208.9269,-205.7404,-196.1116,-188.4862,-175.3618,-165.1184,-151.2578,-129.4277,-118.4532,-99.20903,-83.25188,-62.49732,-46.75082,-40.9315,-16.07818,0.5449416,17.83631,40.32292,60.21646,83.89136,103.872,128.4643,153.7037,174.6752,211.9604,229.068,255.3483,277.3858,300.6222,319.1983,331.036,354.9884,368.874,389.1297,402.4539,421.5016,436.8074,451.999,467.3342,481.7144,494.4914,509.5588,520.6332,532.7293,542.166,553.0557,564.1674,570.585,579.3108,587.0897,592.9801,599.6747,605.692,610.6727,614.7459,617.1501,622.0292,621.608,624.1222,622.4894,624.6088,622.6188,621.4326,617.8098,614.9768,611.8191,608.1945,605.6768,607.6793,597.7225,593.2345,585.5633,578.2602,558.3938,552.9178,541.6342,530.6622,518.4486,509.316,496.6101,484.8058,474.1062,462.504,450.0445,437.467,424.5583,409.9646,395.1514,380.5264,364.443,351.0359,335.4112,319.6606,307.6127,293.8509,279.7076,273.0492,259.5683,252.8453,226.7037,214.9192,193.8618,174.9078,154.6959,133.1989,112.3981,90.73026,80.54217,60.30376,40.6389,28.13304,9.500527,-4.80245,-17.14781,-32.71771,-47.70386,-58.70272,-72.91419,-92.87369,-107.8235,-122.4543,-140.4991,-157.6714,-175.4465,-177.5764,-193.296,-201.9751,-210.5765,-218.9598,-226.0435,-232.8395,-235.7512,-241.7859,-249.7288,-250.6203,-270.2977,-272.3942,-284.2066,-293.9116,-305.8119,-315.3067,-315.3034,-328.5887,-332.5583,-342.447,-347.2531,-355.2578,-361.6339,-368.2805,-375.3158,-381.6723,-387.3304,-394.5993,-401.0628,-407.6611,-411.7399,-417.2724,-424.363,-427.3945,-431.743,-436.3387,-438.4658,-441.7907,-445.6708,-448.8196,-450.7323,-452.6315,-454.8822,-457.3663,-458.4006,-457.6263,-459.6158,-457.0387,-457.0061,-453.9729,-451.2195,-447.8378,-444.118,-443.1994,-448.7343,-444.9772,-446.9283,-448.9816,-452.2093,-441.2838,-444.5609,-441.8394,-441.2881,-436.5825,-437.8652,-434.6915,-432.6339,-430.7964,-427.9307,-426.9461,-425.0559,-423.5065,-421.3324,-419.1629,-419.4777,-415.7625,-416.451,-411.8699,-412.129,-410.5552,-409.1693,-407.0353,-406.2599,-403.1113,-403.6127,-400.4973,-399.4225,-396.4336,-395.3736,-383.2849,-383.1786,-377.8918,-374.2992,-369.2803,-367.6293,-359.8606,-366.8801,-360.45,-354.3371,-353.5458,-345.4259,-340.7832,-334.4714,-324.5435,-319.91,-307.3463,-298.036,-286.1982,-273.5049,-261.5961,-246.493,-222.0054,-212.6026,-191.9498,-177.4725,-159.3946,-146.3379,-134.456,-115.2489,-98.44563,-83.4849,-62.93892,-46.15345,-27.53744,-8.544083,10.91403,29.27522,51.23326,70.94387,88.73232,121.7592,135.0241,159.1522,176.1122,195.2519,200.6134,223.0917,235.2663,249.6348,263.8289,277.938,289.9497,303.999,316.6792,326.2466,339.3721,348.9069,358.3007,366.6049,375.6788,380.0692,387.0904,393.3163,395.6382,404.2908,404.0571,409.0822,411.7066,413.5407,414.2774,413.1636,415.5094,412.6261,412.931,410.7374,408.17,406.3614,403.8294,400.455,396.723,391.9613,389.4177,383.2082,381.3689,374.4475,371.0579,366.016,362.8865,358.8671,354.0021,350.7927,348.0575,342.8681,340.0652,332.8974,333.0991,325.1728,325.8019,318.2624,315.4979,312.7979,308.6982,306.5825,302.6905,300.1833,298.331,296.8851,294.7531,294.8092,295.2553,283.0542,281.0696,275.3407,269.6756,260.4264,255.609,243.8259,245.2771,238.7131,232.4741,228.0704,222.1708,218.7517,214.5838,209.5523,205.6444,202.4064,199.094,196.2744,191.5257,191.7409,188.7392,174.0126,172.8071,163.1252,155.8265,145.1902,140.75,137.3923,129.3808,123.2336,118.7369,111.4278,107.6787,102.3949,99.0976,93.57159,91.67078,87.37164,83.78314,82.99312,64.10516,64.0654,51.93394,43.83752,32.00962,35.09613,21.23345,18.00154,12.11081,5.144067,-0.8345627,-5.791354,-11.37744,-17.67658,-21.93796,-29.30453,-33.40554,-39.52023,-43.27975,-50.71369,-53.58434,-58.81037,-63.6875,-66.49968,-73.3698,-75.98941,-80.86742,-85.68014,-87.18477,-93.51337,-94.22851,-101.1847,-101.6832,-106.4389,-111.2234,-113.5866,-118.2227,-121.6908,-125.4522,-128.1665,-132.1051,-136.1686,-137.2997,-141.6674,-143.7721,-144.0616,-147.2011,-147.335,-149.3673,-150.7467,-152.4825,-154.8848,-154.903,-157.2672,-154.9028,-160.1081,-156.8606,-160.5168,-158.6974,-159.7146,-160.5531,-159.8971,-159.994,-159.4661,-158.1042,-159.1537,-158.682,-156.0603,-156.9561,-155.0376,-154.423,-152.7154,-150.0664,-150.2902,-146.9803,-147.608,-143.7569,-142.7357,-138.5414,-137.923,-135.1429,-131.8036,-129.5044,-126.7992,-125.2311,-121.0505,-118.7334,-116.3598,-112.09,-109.6181,-106.9839,-104.1947,-102.489,-96.56688,-96.19449,-93.45566,-90.67556,-89.67128,-84.71407,-84.29249,-81.47613,-79.50116,-76.48956,-74.96655,-73.29383,-70.45845,-70.45982,-67.82375,-67.52916,-63.46054,-64.65373,-61.25987,-59.89107,-58.55372,-55.22041,-55.37368,-53.47846,-49.1454,-48.80376,-45.93966,-44.98458,-42.22407,-39.69537,-38.5856,-36.594,-34.62634,-33.38452,-30.99055,-28.71747,-28.26926,-25.21025,-25.51078,-23.31731,-20.94678,-19.51165,-18.33353,-15.96608,-14.96735,-11.22874,-12.53874,-10.88892,-10.45795,-9.596895,-8.607826,-9.403638,-7.585507,-9.153302,-7.593791,-7.484177,-7.848714,-9.001337,-8.752886,-8.422665,-9.763763,-8.391129,-7.643752,-11.67316,-7.78972,-11.08676,-10.54608,-10.70378,-12.5424,-11.72799,-13.2994,-12.31802,-16.31411,-14.44428,-16.2349,-16.26787,-17.11719,-16.56412,-18.30624,-16.61132,-17.66116,-17.27716,-18.77485,-18.47059,-19.5359,-18.95909,-19.46044,-19.58769,-21.95566,-20.53272,-22.29127,-20.63724,-20.30978,-21.22409,-20.8505,-18.94139,-19.51018,-19.33161,-17.30211,-19.00823,-17.62691,-17.66981,-15.81364,-16.17664,-15.39285,-14.25096,-15.046,-11.33551,-13.6722,-10.16341,-9.346876,-9.955456,-7.46548,-7.187459,-6.364442,-2.905065,-4.454981,-2.697842,-1.979694,-1.524273,-1.638677,1.059377,0.1325822,1.782634,2.237617,4.57153,5.634706,5.066269,9.419315,9.388528,10.82944,13.46141,14.30358,17.03297,19.7827,20.73594,23.68774,25.77572,28.79012,30.45193,32.64768,35.23727,37.45266,39.20254,41.99426,43.3668,45.23168,47.9891,48.87207,51.60329,54.39544,54.41201,57.55797,58.513,59.03754,63.05254,62.40645,64.92499,66.13581,66.77385,68.56935,68.6631,70.78015,71.00517,72.02195,72.94268,73.88647,74.50324,75.51272,76.33899,76.64337,77.37094,79.00189,77.82306,80.0232,79.57593,80.25249,80.60573,80.74424,81.72363,82.22904,83.0261,82.84666,84.68972,84.26989,84.87831,86.75358,86.55167,88.26472,87.64888,88.60457,89.17497,90.4387,89.51681,89.56657,91.37976,90.54834,91.27514,90.21384,92.57858,92.5461,92.14117,92.85656,91.44168,94.83358,92.68141,94.94872,94.77003,96.46616,95.9564,97.43842,98.33165,100.0007,99.97137,101.0151,101.0551,103.8818,104.8405,104.3672,107.314,107.4354,110.2276,112.2336,111.3781,113.3604,113.5176,113.2444,112.5819,112.0819,110.7143,111.247,110.8108,108.9937,109.4512,105.9273,107.0988,104.0862,104.5327,103.0456,100.5154,100.0505,100.2077,98.18383,94.46733,94.4878,92.04401,90.51407,88.92982,87.60697,85.0932,83.72727,82.47911,81.49757,80.2445,78.78815,76.90405,74.64935,73.93473,71.19625,68.41792,66.44747,63.41426,61.59652,57.96624,55.14089,52.6217,47.44333,45.95463,41.74534,36.93286,34.17666,30.46168,26.82367,22.53566,17.40583,14.00738,10.0518,5.697975,2.40268,-3.446707,-6.322724,-11.39209,-13.20492,-19.32391,-22.58968,-27.14246,-30.92786,-35.14653,-38.46703,-42.69907,-47.73095,-50.99578,-56.22757,-58.99201,-64.46678,-67.6885,-71.97016,-75.34868,-80.2843,-85.92442,-87.03405,-93.92472,-97.20415,-103.0119,-108.0139,-110.8678,-116.8885,-122.982,-125.4555,-133.217,-135.7454,-142.5463,-145.8748,-151.1633,-155.4081,-162.8347,-163.5149,-169.2775,-172.5686,-175.8084,-180.5127,-183.6595,-186.3799,-190.8473,-194.3157,-197.9104,-199.7427,-205.9854,-207.3218,-210.4534,-212.8661,-214.8455,-218.093,-222.8069,-216.1448,-223.6201,-223.6139,-227.9659,-231.3496,-234.0414,-239.6665,-242.4476,-246.8208,-254.0076,-270.638,-265.7125,-277.2732,-280.658,-273.9224,-286.4613,-285.9557,-290.0752,-294.5858,-296.3045,-297.1116,-301.1652,-303.349,-308.4127,-312.6453,-315.364,-314.8713,-313.8034,-312.2391,-307.5721,-306.2396,-300.7811,-294.8687,-287.4518,-279.7003,-260.776,-257.0754,-242.5443,-231.9805,-217.2409,-220.3538,-199.6006,-190.8587,-175.7644,-164.1486,-152.2901,-135.3665,-118.4855,-101.4239,-84.77067,-66.0549,-48.84498,-29.03672,-9.479864,8.359912,27.19574,46.945,64.96524,83.87959,103.1921,121.1713,139.0946,153.3174,173.8183,188.2902,206.5839,221.4163,238.1698,247.4673,265.8537,276.4161,289.4994,300.806,310.7588,323.3497,330.4473,348.1874,361.2273,367.2983,374.9542,380.4681,383.314,373.6929,380.9077,375.6609,373.1164,372.0248,364.3502,361.6262,356.8951,348.3004,344.1527,338.2406,330.1935,323.4123,315.1505,303.3106,296.0331,286.2604,275.1799,265.1112,254.9799,244.4936,247.2215,231.5664,227.7542,218.2737,209.966,197.4165,183.6277,181.6332,158.7232,151.6114,137.5599,125.2067,115.4144,102.8688,91.66371,79.63573,68.07038,59.22944,62.97539,57.26221,50.74923,50.29952,31.15579,29.59504,19.11127,2.482913,-7.445321,-19.57016,-33.03478,-46.45847,-57.94274,-66.31308,-70.26299,-79.65921,-84.40283,-90.06194,-93.15068,-99.26177,-100.7477,-103.9655,-105.9308,-107.3557,-105.9985,-120.2664,-117.541,-126.08,-130.335,-138.9009,-129.4447,-139.3557,-138.1236,-141.2849,-140.9775,-139.6265,-140.1935,-141.1952,-143.4165,-140.6194,-144.5217,-142.2682,-144.64,-145.4027,-145.3378,-146.2068,-148.834,-147.5988,-150.2327,-150.5965,-152.1901,-154.9156,-150.8341,-155.1882,-151.7736,-155.0782,-155.2974,-155.4174,-151.3462,-151.1663,-149.1284,-145.9681,-143.7553,-135.1361,-135.6332,-123.1553,-127.8186,-133.6357,-128.4445,-133.18,-134.2907,-137.9192,-128.2983,-132.5987,-128.8082,-127.4257,-127.0384,-123.1901,-120.9731,-120.6552,-113.8304,-112.5461,-109.2823,-104.7133,-101.7078,-96.79387,-92.37357,-86.11849,-81.74558,-74.64699,-67.09272,-60.56533,-50.71835,-58.70268,-46.86544,-48.50402,-46.15349,-45.69852,-40.22264,-30.19434,-32.69267,-24.43167,-22.10115,-15.59374,-9.323889,-4.693218,0.4458735,7.526996,13.62075,20.72581,26.42834,33.31144,28.33726,36.17452,34.13755,36.14003,37.03523,32.44068,40.468,41.08577,42.21971,44.12666,45.30636,47.9514,49.13849,49.54173,52.88288,51.75797,55.36054,54.68273,55.50743,57.53208,58.00731,60.89045,62.6341,62.70302,65.41945,63.98478,67.63881,68.84463,69.28821,71.44772,71.57942,73.17703,75.33464,75.86582,77.31282,78.28989,79.63647,81.44504,80.5294,84.8477,83.32294,86.56583,86.69897,87.67066,88.63302,89.81875,90.12358,92.85321,92.5975,93.34466,95.79509,95.58898,97.04279,96.74797,98.04048,98.4215,97.33629,99.9401,98.16529,98.18853,98.47733,97.7924,97.62413,98.63002,93.56897,95.20454,94.8402,91.97616,93.5529,90.72128,90.94532,89.60006,87.58748,89.25388,86.2686,85.30001,86.15411,81.93098,84.70606,81.54068,80.61397,80.09214,78.547,79.32087,75.76779,77.03875,74.99479,74.89135,74.58807,73.64141,72.94408,71.56013,70.70932,70.34656,68.33753,67.80977,65.93633,64.53249,61.5327,61.47507,57.73102,57.50869,55.09533,53.45858,51.39163,48.09767,47.67259,44.97702,41.99838,41.7423,39.03917,34.58133,34.89302,32.09767,30.10271,25.93586,26.48457,21.34372,21.87057,17.83826,15.28311,14.29846,11.12561,10.10406,7.514267,3.969166,3.578552,0.3696768,-1.917591,-0.8882252,-5.367815,-6.61043,-10.14746,-10.58977,-13.32357,-15.97581,-16.17381,-18.41867,-19.63632,-21.03766,-22.58307,-23.72255,-26.16332,-26.66563,-28.78605,-28.48343,-29.78116,-31.54778,-31.05416,-30.93098,-34.99294,-33.95276,-36.32171,-34.77319,-35.54065,-37.08079,-35.33513,-36.72493,-35.17924,-35.25038,-35.22453,-36.16331,-36.06998,-36.84341,-35.15055,-35.75229,-36.30178,-33.97654,-36.20762,-34.91884,-34.62076,-37.03874,-35.43989,-38.97336,-37.53521,-38.25974,-39.05009,-38.06499,-39.13892,-39.05325,-41.67667,-39.48841,-41.09139,-40.18586,-41.36238,-42.24831,-40.77118,-42.00035,-41.27027,-41.15328,-41.07413,-41.78338,-40.5456,-41.42738,-41.07553,-40.3,-40.72015,-40.95484,-39.76487,-39.57652,-39.04855,-39.23063,-38.86778,-37.68528,-39.26662,-36.50486,-39.20541,-36.57537,-37.45851,-36.26688,-37.29752,-36.63511,-35.7162,-35.81558,-37.00443,-34.43945,-34.60101,-34.52602,-33.56495,-32.09282,-34.24341,-32.15176,-31.74652,-31.50189,-30.16434,-30.76503,-28.83989,-29.46294,-26.95001,-27.73209,-25.79996,-25.0863,-24.79918,-23.95638,-23.07652,-21.98935,-22.03363,-20.66116,-20.21248,-19.2509,-18.80142,-18.98605,-16.8675,-16.27697,-15.04419,-15.61499,-14.32781,-12.82076,-13.45727,-12.37467,-11.87711,-12.49223,-11.4016,-10.29438,-9.875764,-9.540756,-9.886212,-9.720586,-8.827527,-9.774277,-8.329998,-9.71392,-7.876221,-6.723552,-8.615638,-6.118669,-6.756668,-6.095845,-6.255424,-5.992466,-6.782099,-5.636238,-5.915786,-4.78328,-4.018553,-3.157465,-2.851648,-3.975712,-1.572485,-1.48349,-1.130038,-0.9385362,-1.671457,1.712813,0.8531543,1.606517,2.751117,1.791968,2.726579,4.015303,3.103904,7.240496,3.47895,6.877401,7.058508,8.688034,9.291589,9.55604,10.27018,11.72546,11.73051,12.25264,13.17651,12.42853,15.24043,13.05022,15.84238,14.14606,16.48449,17.4279,16.15397,18.07896,16.27815,18.5678,16.88418,19.34879,17.61488,18.65288,16.94428,18.05243,17.48666,15.80964,15.81006,15.18158,14.41919,15.67256,11.48845,13.45177,11.83492,10.48988,10.03871,9.816509,10.20767,7.38046,8.865223,7.901665,7.264085,4.692382,4.367719,3.027866,1.161108,0.5592769,-3.085012,-1.982867,-5.726241,-4.14529,-8.793913,-6.704027,-11.01554,-9.621182,-10.73755,-13.08386,-13.55999,-14.21325,-14.61688,-15.88257,-15.36329,-16.9646,-17.47839,-17.71053,-16.46154,-18.27143,-16.64681,-18.6993,-16.69565,-16.26649,-14.80461,-15.83012,-13.28999,-13.58407,-11.95197,-12.15561,-9.766175,-9.555363,-8.321564,-6.474405,-5.981543,-5.311959,-4.029446,-2.51479,-1.687195,-0.5926764,-1.267216,2.211801,1.968852,5.232264,3.782894,6.086625,8.977337,8.763008,10.80529,13.276,12.32548,14.48166,11.44164,16.3198,15.21655,16.63941,18.37637,19.79147,20.61502,22.2758,22.66904,25.25183,26.58258,27.58853,29.03384,28.82249,31.30751,29.6939,33.39143,32.30806,33.06198,32.64232,34.55775,33.03037,35.85772,33.80857,35.15652,33.98868,33.79149,34.73501,31.66508,33.88781,31.22389,31.93277,30.23321,30.02079,26.81689,27.74453,25.41131,23.65734,23.52459,22.62352,20.9989,20.02909,19.99897,18.29342,17.69342,16.0823,17.45993,15.51095,15.9397,11.6429,14.89612,9.967937,10.9829,7.267795,8.927238,6.4341,5.183213,5.230894,3.011785,2.646728,1.092199,1.265498,-0.6151759,-0.8125147,-3.304342,-1.205051,-4.51968,-4.515795,-5.592536,-4.843157,-7.210272,-5.91159,-8.401921,-6.755575,-8.339382,-7.290424,-6.034454,-7.382589,-6.572872,-6.816406,-5.000808,-5.224572,-5.263913,-4.738157,-4.34215,-4.892114,-5.035926,-4.453235,-4.808401,-4.770262,-4.221459,-4.443926,-1.645535,-2.495742,-1.420557,-1.526267,-1.168673,-0.2788036,0.4804202,1.782259,-0.04420997,0.9424938,0.2371974,0.7799698,-2.153635,-0.7121178,-3.033032,-2.483092,-5.432426,-5.590613,-5.810225,-5.589894,-5.94234,-7.371598,-7.169131,-8.332415,-8.246444,-8.888961,-8.315734,-9.702212,-9.528661,-10.68307,-10.03803,-12.21442,-10.29245,-12.59574,-11.14754,-13.60153,-12.57658,-13.22454,-13.70658,-14.12962,-13.09137,-14.43913,-14.47999,-14.82786,-15.10877,-15.27866,-15.69286,-13.99463,-15.77689,-14.31089,-13.75477,-13.36038,-14.71388,-12.51379,-13.11341,-12.34236,-12.05417,-10.96227,-12.10206,-10.38005,-9.810412,-10.32965,-8.863239,-8.413315,-6.981332,-7.444728,-6.301566,-5.81913,-5.873392,-6.427861,-3.811803,-4.464582,-4.227239,-5.225101,-5.626331,-3.849896,-5.69974,-6.043913,-4.517865,-7.549099,-5.400685,-8.351689,-6.837825,-8.254027,-9.23139,-8.832198,-10.0268,-9.02783,-11.25263,-10.22372,-11.86081,-10.61408,-12.375,-11.98715,-14.27156,-13.57237,-15.48546,-14.59874,-15.80226,-17.38605,-16.25172,-18.14146,-19.50257,-19.96682,-21.55905,-21.46485,-21.04142,-21.85499,-21.30656,-21.79252,-21.01438,-21.37643,-22.83927,-21.80375,-22.70507,-20.73616,-21.58143,-21.11846,-21.86235,-21.96112,-20.71333,-21.33245,-20.46591,-19.65093,-18.91301,-17.10314,-16.97618,-16.04993,-15.42792,-13.67202,-12.81155,-12.52561,-9.572783,-9.555426,-7.606902,-7.223881,-4.64488,-3.185148,-3.583686,-0.7087586,0.4750211,1.714405,2.985411,3.458427,5.820753,6.011395,8.599466,9.084925,9.654501,11.02501,11.64539,12.81498,13.23872,13.59691,15.44018,14.41311,17.24902,15.76028,17.24686,18.04195,17.57969,19.15255,18.90917,17.4444,19.72764,19.33837,18.90051,20.69838,20.67166,21.12096,20.58107,20.53171,19.90873,21.46156,16.86031,19.17102,17.13715,17.3771,13.28377,13.48645,12.69869,10.15944,9.203998,7.785404,7.675174,6.119897,3.734464,3.958709,2.39551,-1.243487,0.2660488,-1.973786,-2.340259,-4.533072,-4.2629,-6.327183,-6.984447,-5.516087,-8.102624,-8.474193,-8.429235,-9.021157,-8.434958,-9.593452,-8.826103,-8.186559,-8.274637,-6.36992,-5.796231,-6.568716,-4.096357,-5.132989,-2.703781,-3.909623,-1.185396,-2.06823,-0.5529574,-0.0752711,0.0565389,2.496945,1.231615,5.041239,4.909512,8.232849,9.398149,12.17279,11.93843,15.3031,16.36459,18.23981,20.55815,21.59399,24.21569,24.41371,27.62198,27.27141,28.51352,29.70738,31.66763,30.65569,32.57922,33.1527,34.16491,33.23792,34.37767,34.06301,34.43516,35.25004,32.30288,34.94254,32.23669,32.36314,31.05186,31.80773,28.92215,28.05689,27.10774,25.55408,24.89797,21.79593,20.80744,19.65948,16.5613,16.06062,12.98521,9.978165,11.9892,7.334855,8.420841,5.10652,3.050882,3.493717,0.3991396,-0.442035,-0.4514973,-2.211849,-3.54192,-2.28126,-4.10217,-6.544196,-6.149173,-9.388805,-8.061413,-9.822259,-12.07318,-10.29071,-13.46637,-13.33566,-14.4783,-15.16282,-14.97856,-16.33067,-14.56299,-16.62893,-16.09272,-18.04273,-20.01746,-16.61406,-20.33189,-18.42443,-18.94149,-18.74852,-18.24622,-17.39956,-16.42195,-15.97133,-13.85565,-13.9886,-13.24809,-14.16748,-11.54934,-12.41691,-8.960812,-9.923015,-8.508306,-8.801527,-6.899047,-6.24602,-6.395636,-5.705901,-4.945641,-5.619841,-4.390996,-7.228063,-4.290495,-8.866876,-5.23112,-6.655154,-6.70886,-6.268781,-7.274802,-5.364556,-5.810916,-5.352495,-5.718663,-5.735259,-5.564885,-5.304055,-4.607893,-5.930988,-5.172781,-6.79796,-5.008969,-6.735508,-6.35441,-7.091646,-7.624815,-7.859236,-6.251486,-9.081401,-6.535914,-9.391449,-6.543769,-7.990549,-7.350774,-8.000743,-7.27915,-6.758293,-8.22872,-5.583807,-7.839522,-7.183415,-6.357941,-6.923145,-7.282986,-5.525009,-6.51872,-5.445123,-4.924259,-5.513796,-4.677394,-4.557652,-4.939527,-2.604217,-4.593235,-2.593151,-1.780141,-3.707433,-1.737827,-1.82937,-1.574787,0.1471017,-0.5070434,0.4998,-0.5921924,2.072144,0.690699,2.708786,1.66387,3.074088,3.105222,2.387972,4.652066,3.520067,3.946179,4.025227,4.136917,4.681333,3.938949,3.751093,3.826342,2.618672,3.66483,2.514522,1.654251,2.100603,1.255049,2.996804,0.4923502,3.379736,1.124672,2.941514,2.128106,2.1427,3.849799,1.298495,3.094576,0.2500638,2.482534,1.182948,1.172873,2.322835,2.954916,0.7384041,3.149431,0.8649412,3.368593,2.243449,2.390395,3.410785,2.410439,3.003578,2.291582,3.582338,4.246517,3.835527,5.245427,4.604485,4.645551,6.292468,5.704699,5.292601,6.835471,6.416749,5.538858,7.20334,4.939983,6.025365,6.17381,6.502616,5.184434,5.114552,5.843236,4.402807,4.343753,4.105547,4.311354,4.169436,4.371467,4.239949,1.92451,1.754907,1.876014,-1.151237,-1.95353,-2.175645,-5.15155,-4.967427,-7.397417,-6.525709,-11.78527,-9.988246,-12.47102,-14.20008,-13.19439,-15.39736,-15.98837,-17.37296,-16.52592,-18.56752,-19.28341,-19.84713,-21.88382,-20.04279,-22.72396,-21.96847,-21.11334,-24.84557,-19.45295,-22.37322,-21.38989,-20.55675,-21.09471,-19.97942,-19.75936,-17.31093,-18.99032,-15.34704,-15.93843,-13.57357,-13.60799,-12.44615,-11.2974,-9.604853,-9.78455,-6.430622,-5.954863,-5.042747,-3.891068,-1.793699,-1.260178,0.9553195,2.01736,5.050756,4.882331,7.137353,8.297051,7.868292,13.22555,11.72164,14.4279,14.90315,14.65046,16.82624,16.57961,16.05948,19.00141,15.24228,20.14254,17.4441,19.54865,20.95918,20.81727,21.20796,23.17454,21.94089,23.29915,22.94,22.81073,24.30786,22.74046,23.38947,23.71578,24.4241,22.88424,23.26461,22.59757,22.02667,20.97938,21.10404,18.99331,19.35748,18.43853,17.58599,16.37744,16.34262,15.10471,15.49641,14.2837,14.28384,12.31238,13.233,12.65571,12.27768,11.37039,12.1436,11.40787,9.09232,8.943776,9.59421,4.560118,8.444423,3.537507,4.300398,2.728068,2.634229,0.2073226,1.623896,-1.46054,-1.991355,-2.704418,-2.898556,-6.412207,-4.552068,-6.484139,-7.798945,-9.208505,-10.33597,-8.509441,-14.15585,-11.04424,-15.61392,-12.43889,-13.69425,-14.11621,-12.11047,-14.33213,-14.14018,-9.382955,-13.17917,-9.006174,-11.4091,-10.18963,-12.03306,-12.81621,-10.42605,-12.49531,-11.45529,-12.92777,-12.62214,-12.24358,-10.20705,-13.91495,-12.26867,-15.12491,-11.09404,-16.51912,-15.61674,-15.70962,-18.92195,-16.62214,-19.47757,-18.84701,-21.68625,-22.26601,-24.65544,-24.62994,-27.86905,-27.17085,-31.74609,-32.88966,-34.7287,-39.15245,-39.54665,-41.0811,-44.32757,-42.74115,-47.77796,-46.91972,-48.64208,-49.85708,-49.71114,-51.78039,-53.45126,-53.25004,-56.55857,-54.38703,-56.76859,-56.08314,-56.60087,-56.14776,-56.24337,-55.11063,-56.38015,-53.65389,-53.63977,-51.53793,-51.69773,-48.32223,-46.61444,-45.38862,-40.39286,-40.89462,-36.38621,-35.7981,-30.90472,-29.66945,-24.26423,-23.73041,-19.09482,-16.08874,-12.93168,-8.875126,-8.603306,-2.481288,-0.1157498,2.763843,5.906423,10.05094,13.10942,13.38604,17.74056,20.85147,22.01954,25.54324,25.24553,30.61558,27.94795,31.11435,30.10423,33.13439,30.24806,33.62607,32.62374,30.92751,32.24789,31.98561,31.41455,31.96435,28.18415,32.81437,28.42804,33.42143,28.44604,30.10787,29.42569,26.5573,30.28906,26.43662,25.72224,22.73138,22.5985,19.77808,19.53594,18.30129,18.59839,15.05243,16.13834,13.34812,14.78583,12.03164,12.27099,8.771133,9.309851,7.244473,8.076632,5.183751,5.952432,5.714166,3.556989,6.102144,1.571374,4.319535,0.7171858,5.161198,3.101667,4.089213,4.169132,4.955542,3.452733,2.059107,6.278596,0.894357,5.604977,3.504788,3.445862,5.622996,0.4217123,4.456579,2.046018,2.328601,3.149099,2.949693,2.727186,3.606501,1.784426,4.693831,2.943498,2.29599,2.751384,2.429455,1.674511,2.973097,3.108365,3.531526,3.414614,4.47755,4.160717,7.272034,5.334635,6.445106,9.046362,5.413827,7.68915,4.681746,8.56035,7.274438,11.97569,9.73014,13.80358,14.60556,17.64384,20.07727,22.05576,26.20913,27.853,31.20597,34.15238,37.55946,39.2816,43.67081,47.09771,49.86448,51.33772,55.58443,55.44697,61.04111,59.15662,66.57973,63.86017,68.35977,69.48408,71.07732,72.43568,72.53425,75.84241,75.79439,76.14101,77.59887,76.94532,79.60809,76.95982,79.1126,76.51741,76.48233,76.48977,74.15558,75.29582,72.14951,72.14037,69.68992,69.84995,67.11124,68.28139,61.97669,64.40906,58.57606,60.29746,54.21354,55.2898,48.53,49.40909,44.47009,41.95951,38.13201,34.32096,30.22309,28.1308,25.35941,21.7392,19.25184,18.0732,17.07173,14.66312,14.86412,10.62806,9.994572,8.620091,6.18282,4.631759,2.361257,4.015355,-0.8361866,1.363403,-1.362212,-2.113039,-3.793825,-3.723049,-3.150338,-5.522281,-5.120857,-4.277437,-5.835443,-6.416258,-6.520665,-9.114938,-6.504994,-8.461379,-11.24722,-7.422504,-12.23288,-11.22905,-11.5911,-12.28813,-14.90532,-15.55935,-17.27879,-18.87164,-21.13664,-24.52528,-26.06256,-27.93044,-31.61321,-30.50436,-36.07731,-35.06721,-38.2556,-40.31941,-42.59709,-45.72371,-47.41482,-50.04358,-53.26591,-54.60157,-59.26522,-60.74399,-62.92656,-66.58628,-66.63057,-70.25928,-70.78623,-75.39963,-75.02861,-76.37006,-80.23073,-80.19881,-81.16897,-81.56112,-82.38083,-84.2188,-83.69736,-84.45351,-84.91217,-83.17745,-85.54771,-82.48184,-84.1855,-83.95369,-80.1432,-82.19997,-79.61855,-79.65914,-77.39602,-76.8822,-73.57107,-73.20035,-71.10816,-67.28226,-67.57564,-63.35175,-61.23872,-59.05153,-55.97319,-54.34388,-50.94401,-49.87136,-47.52655,-41.30004,-42.35459,-36.71554,-38.70656,-34.2691,-35.26204,-33.63184,-36.05318,-33.72766,-32.79649,-31.17789,-32.3807,-29.54636,-32.12595,-27.42223,-30.81069,-28.2165,-28.54127,-29.46082,-27.1336,-30.09199,-27.47504,-27.41272,-28.34879,-26.84385,-27.92952,-25.8256,-25.59646,-26.68992,-25.35647,-24.90601,-24.88071,-23.17434,-23.67954,-20.54259,-22.85384,-18.45498,-20.06596,-17.29051,-16.08652,-15.87497,-13.43568,-11.62552,-10.3833,-9.246403,-4.878112,-4.718053,0.01137625,1.253441,5.480462,7.846689,10.86683,17.49466,19.11904,24.43591,26.96298,29.83914,32.12828,37.14928,39.05599,41.67652,44.27561,48.13572,49.67628,52.20717,54.32833,57.54292,58.11429,61.73638,64.22151,64.19612,69.13845,68.30511,71.46247,71.21053,73.70877,75.18861,74.87173,78.58351,77.37348,76.97414,75.81175,78.3163,75.43669,77.29259,76.49623,78.09683,77.68394,78.18381,78.47686,77.83769,79.29793,78.56136,78.47024,79.45913,78.31656,79.32384,79.90431,78.03632,79.64737,78.3873,77.95554,80.17041,78.16569,77.67848,79.58477,78.44055,81.50536,78.81494,81.96691,80.66599,80.16795,80.09198,77.37205,77.64062,74.60723,73.63591,72.76092,71.25303,69.67488,64.55968,66.16799,62.43039,59.31538,57.7086,52.89528,53.87926,47.34143,46.14456,41.63917,38.02694,35.68722,32.53162,27.85919,24.52836,21.72275,18.93624,13.64066,11.5853,7.891886,4.44686,2.302722,-1.142609,-4.666396,-6.531068,-10.85499,-11.97405,-15.42753,-17.24096,-19.79762,-22.2895,-23.65166,-26.47996,-27.7346,-30.21944,-30.16213,-32.0979,-31.63917,-34.49983,-34.22513,-36.70469,-36.28848,-35.27542,-37.913,-36.75069,-38.03018,-38.1516,-36.06795,-38.04735,-36.86528,-37.65768,-35.01379,-35.76797,-35.13307,-35.8197,-33.07557,-34.25804,-34.59011,-31.21034,-32.80548,-32.32924,-30.23987,-31.48916,-29.58027,-29.27481,-32.42374,-26.38388,-33.95868,-26.85519,-33.66495,-32.09228,-32.22324,-31.20939,-33.02001,-33.24065,-33.56385,-32.26732,-33.80198,-33.79706,-35.75104,-33.55351,-35.09671,-36.41185,-35.37107,-34.96195,-37.70936,-35.67186,-35.92066,-36.60426,-35.80636,-37.37785,-35.04499,-35.14872,-36.06219,-34.04694,-35.32944,-33.3866,-33.07664,-31.31811,-32.59622,-29.19926,-30.22713,-27.78485,-29.13664,-26.63223,-27.23559,-26.41745,-24.75511,-26.47455,-24.80973,-26.93528,-24.0818,-26.28554,-27.07609,-27.37483,-26.46885,-29.06239,-30.237,-30.12692,-32.44694,-32.93384,-34.47952,-34.67459,-35.85938,-37.88077,-37.3463,-39.59063,-42.28519,-38.65841,-43.99632,-43.19092,-43.14933,-47.14934,-44.3712,-46.8854,-48.83982,-46.96429,-49.69997,-48.23124,-50.36219,-51.06273,-51.03891,-51.60072,-52.34053,-49.98493,-52.78844,-50.37811,-51.44691,-50.01612,-50.11648,-50.26513,-47.86746,-47.71729,-46.6551,-46.11798,-45.01384,-43.77756,-42.38118,-42.65523,-38.76974,-40.31912,-36.95765,-38.06433,-33.20394,-35.67101,-30.30216,-33.34073,-28.43164,-25.53162,-24.82793,-23.5322,-20.40324,-18.6617,-15.98023,-13.60013,-14.31467,-6.669405,-11.27431,-3.141975,-6.778396,-2.89328,-2.488517,-0.8158098,0.4932016,0.1425527,4.151384,2.263481,4.871741,3.991948,5.280886,6.383945,3.708146,5.838181,9.385613,7.816412,8.994182,9.23651,9.484997,8.312315,8.658354,7.30713,7.312564,3.795566,5.600481,3.815571,2.001604,4.058159,-0.6978657,3.984732,-2.926379,2.356677,-3.926261,-0.8988045,-4.293788,-1.18285,-6.073753,-6.500742,-3.853372,-8.69557,-4.374076,-9.373835,-5.638839,-9.566234,-6.250092,-6.854425,-6.117921,-6.801882,-4.698407,-5.74781,-3.065189,-2.844055,-1.889257,0.6243024,0.8196092,2.815264,5.312258,4.892684,7.741737,12.04641,10.94761,14.37333,17.31745,17.53181,23.93525,23.9644,27.25299,29.93711,31.63054,34.67954,38.33917,40.13721,41.98978,45.90908,47.16664,51.82641,52.0151,55.93133,58.24636,60.11889,63.77863,64.35814,68.05625,67.97501,70.56877,70.85713,69.9328,73.4262,72.03321,74.78967,76.38125,77.18854,78.21333,79.56047,81.20841,81.70049,84.82859,83.67537,86.24449,86.6313,86.53452,87.49926,88.41895,89.06024,88.20931,89.11979,88.8944,87.61974,87.01864,87.37973,86.37762,85.53653,86.0289,81.63093,84.00954,79.99064,80.718,77.80181,77.59409,74.39068,76.28246,72.66501,73.05979,71.03744,71.22026,68.02994,65.75482,62.1187,61.61049,55.26275,56.86265,49.72382,48.99051,44.24242,43.47479,37.13308,36.05877,32.69211,27.79965,26.80595,21.96463,20.96073,14.92037,14.7989,9.292383,8.014828,2.163604,0.2541204,-0.5830387,-8.007653,-6.288411,-13.03693,-13.78672,-19.59071,-19.42991,-25.02708,-25.85463,-29.09676,-31.17082,-33.79897,-34.97234,-36.89358,-39.34858,-40.36731,-42.27176,-41.84369,-43.71836,-45.77426,-44.5801,-47.12968,-47.48222,-47.00505,-46.67185,-47.17787,-45.88214,-46.53811,-45.03708,-44.73434,-44.07619,-43.51108,-40.92858,-43.0118,-40.81152,-40.31124,-40.76078,-37.66282,-39.08863,-38.70165,-37.80536,-39.74188,-37.1724,-39.8518,-39.44094,-42.43879,-41.39495,-43.16395,-42.46263,-40.62344,-44.35152,-40.28546,-42.4255,-40.07829,-43.37998,-40.3311,-41.31592,-41.0547,-39.17667,-41.38897,-38.9807,-39.80533,-38.17953,-37.31547,-38.26107,-36.97252,-36.34798,-36.20895,-34.19032,-36.28348,-31.68798,-34.03141,-32.36125,-31.29016,-30.7361,-31.88062,-27.91493,-32.17906,-25.10906,-27.77359,-24.9942,-25.20007,-23.22845,-23.7159,-22.98967,-23.1941,-22.38726,-23.43486,-21.19667,-23.878,-21.75457,-25.1901,-21.44772,-26.36106,-21.28738,-25.67934,-23.74284,-25.11821,-23.00357,-25.63773,-24.95668,-24.33674,-23.14489,-23.60047,-23.28681,-22.05896,-22.85984,-21.83006,-21.3699,-21.17383,-20.44936,-20.52599,-18.26697,-17.84459,-17.23627,-15.87461,-14.35737,-12.91551,-9.984306,-9.622006,-6.962353,-6.806081,-3.99761,-1.935276,-1.082827,0.03638459,2.255552,2.557131,4.517284,5.113052,7.348263,7.629371,9.58448,11.84196,11.87772,14.33557,14.15477,16.95104,16.75756,18.71354,17.23187,19.4567,19.05293,20.50795,19.48818,20.76848,20.04564,20.31907,18.33473,20.13641,17.79994,18.07559,18.36318,16.38004,15.66748,14.68345,15.55657,12.78417,12.72451,11.12073,9.618962,8.491029,5.626983,6.292219,2.319235,3.935293,-1.23733,0.2325737,-1.971059,-4.216341,-4.395765,-7.272082,-7.866862,-9.783428,-10.9157,-12.76742,-13.19517,-15.11919,-14.68837,-17.60534,-17.36461,-19.5062,-18.33212,-19.03471,-19.51341,-19.21538,-18.72254,-16.46056,-13.92509,-15.16285,-13.72802,-14.66386,-13.7261,-14.00969,-14.50558,-15.06503,-15.07728,-15.68033,-15.72193,-16.89702,-18.38305,-18.66098,-19.45169,-19.89613,-20.21882,-22.52847,-23.28596,-25.21921,-24.80166,-27.09437,-25.6559,-29.14469,-26.67956,-28.65768,-28.1605,-28.04919,-29.68492,-29.2956,-28.28519,-27.45874,-27.68415,-24.70011,-24.45093,-23.83037,-20.49699,-20.58278,-17.6337,-15.87393,-12.945,-12.08646,-7.909639,-7.748636,-3.937592,-2.204491,1.219188,1.535406,6.794458,6.354442,12.11588,12.85168,17.53226,17.91022,22.51998,23.40111,26.00435,27.40587,30.10659,33.41774,33.64403,39.68604,39.67328,44.80137,46.87922,51.10064,51.73825,57.17483,57.30859,61.31947,64.7118,66.95062,69.49161,71.91699,73.70517,75.24402,78.24819,79.3954,80.15622,80.26892,82.48317,82.91232,81.7238,83.49969,80.21257,84.11809,78.78052,81.48827,77.64902,77.82798,75.8145,74.55054,72.09228,69.91869,66.45317,65.92052,61.34407,60.5078,56.04489,54.14992,51.08233,46.86516,46.45308,41.94879,40.01422,37.00809,34.64069,34.54921,31.05876,29.98662,24.88994,25.43305,18.83891,18.73842,11.83517,12.72231,6.718614,7.743508,2.333266,2.379566,-1.146552,-2.878271,-6.366634,-5.631609,-11.18907,-9.732087,-14.06313,-14.54874,-18.7799,-18.64383,-22.23011,-24.71408,-24.338,-28.38897,-26.00843,-29.65088,-28.48837,-29.0142,-31.71202,-29.11921,-30.38678,-28.5816,-29.49098,-27.52725,-28.93097,-27.4247,-25.53136,-25.3724,-26.26488,-23.09,-23.73296,-22.26444,-20.15565,-22.02702,-20.41723,-19.58208,-19.04461,-18.22243,-17.15125,-17.69335,-16.18672,-17.59462,-14.05541,-19.64137,-17.20989,-19.99614,-19.66053,-18.72125,-19.73494,-19.22486,-20.02785,-18.11861,-20.26636,-18.04362,-19.90937,-19.07519,-21.47768,-20.01207,-20.98281,-20.35671,-20.0674,-21.17561,-19.7047,-20.68016,-19.54436,-19.95559,-19.52611,-19.36616,-19.56656,-19.42944,-19.07717,-19.26673,-18.8315,-17.91895,-19.70169,-16.32797,-18.84337,-15.05778,-16.91961,-16.54015,-14.65843,-15.86764,-13.6534,-15.09635,-13.36237,-13.56559,-13.73709,-11.67737,-14.54324,-11.19114,-13.99662,-12.50102,-11.85923,-12.09501,-12.97964,-12.91496,-12.31602,-12.75864,-12.92798,-14.55581,-13.67014,-14.86446,-15.17813,-14.3151,-16.22295,-13.26126,-16.28032,-12.12452,-16.24183,-13.71521,-15.71442,-15.52028,-15.29297,-16.27369,-16.47354,-18.02792,-18.49136,-18.79177,-20.77316,-20.00196,-23.19443,-20.31595,-21.99242,-21.66155,-22.42147,-22.55612,-22.76541,-22.10023,-24.13928,-22.80355,-23.4685,-25.62428,-22.31946,-25.36813,-24.29067,-26.40584,-24.33769,-26.98167,-27.78268,-24.21635,-28.73304,-26.1246,-26.57397,-27.24738,-26.3049,-26.70568,-26.86832,-25.07887,-26.38753,-24.37872,-26.42849,-24.91555,-23.14417,-26.20726,-23.42862,-23.54179,-24.5144,-22.31761,-24.13835,-21.69007,-23.07698,-23.1389,-22.45993,-21.49489,-23.15827,-21.30257,-20.86173,-19.98747,-18.4817,-18.88042,-19.52679,-19.46669,-19.89731,-18.75927,-21.4928,-21.26479,-23.19799,-23.14702,-23.47546,-24.98054,-25.34431,-26.53511,-26.63875,-27.03432,-29.23766,-28.40833,-28.67614,-30.92217,-28.51512,-30.94304,-29.35719,-31.32378,-28.74979,-30.47678,-28.38842,-28.92328,-27.90178,-27.01256,-25.85513,-24.75666,-24.37057,-22.03473,-20.99254,-19.17434,-18.77143,-15.41116,-14.49681,-11.30135,-8.57947,-7.592572,-2.71577,-2.747836,3.988369,3.892492,8.899801,10.83431,13.8118,18.26232,20.55897,24.0958,28.2412,29.96604,35.07852,36.81531,42.67901,41.99806,49.35388,50.17314,55.24441,57.99282,59.72963,63.52147,65.49964,69.79529,69.64192,75.02613,74.44762,78.09919,79.23144,80.88827,82.2134,77.34758,85.28017,80.07934,84.04176,81.17294,85.80184,83.73614,86.44407,87.76098,86.7773,88.42266,88.27276,89.16441,89.30381,88.77335,90.48297,89.3609,90.37002,89.02108,88.80766,86.9335,87.79694,85.06456,85.83597,84.16789,82.83347,80.66233,82.15458,78.72877,79.04576,76.17582,75.85491,74.79895,73.72846,72.84114,70.33033,69.00083,67.75464,66.83186,63.45283,63.01701,60.7006,59.65945,57.35371,55.07387,52.91953,50.06674,50.06982,43.7282,43.64473,39.66521,36.28023,33.94188,28.79017,28.84562,22.93472,21.16143,19.51054,14.3753,12.45333,9.673102,6.85238,4.844226,2.834792,-0.8163575,-4.14841,-4.650275,-8.585234,-10.40309,-13.52061,-14.60042,-18.64622,-18.8142,-21.8965,-23.13284,-24.1922,-26.38741,-27.88441,-28.95334,-29.01447,-33.16879,-31.53216,-33.90886,-33.22343,-35.22793,-35.21852,-35.81686,-35.76678,-35.43952,-35.39073,-36.4526,-34.03643,-36.46116,-32.69122,-34.68636,-33.34361,-33.28169,-32.61407,-32.24959,-33.29006,-29.56409,-33.86208,-32.13902,-33.54246,-33.76914,-37.32081,-37.54518,-38.81074,-43.19106,-43.1025,-46.89784,-43.53735,-47.66785,-45.71357,-48.58938,-45.16804,-49.21497,-46.93363,-48.12356,-47.66592,-48.75043,-46.60346,-46.27069,-46.39428,-45.10866,-43.78454,-45.12138,-41.61219,-43.71207,-40.67122,-42.25508,-39.6071,-38.40626,-38.75408,-37.87343,-38.16158,-36.83482,-35.27167,-36.66695,-34.54845,-36.44654,-34.56776,-34.32772,-33.69623,-31.92312,-32.43734,-30.57889,-29.73648,-27.66586,-29.73019,-26.80872,-28.1285,-27.67205,-25.79113,-28.55002,-26.21034,-28.14544,-26.13732,-28.9972,-26.27882,-29.47779,-29.23597,-29.11245,-29.91339,-30.41934,-32.18495,-32.78793,-33.68158,-35.32734,-35.66362,-37.49557,-38.68745,-38.624,-40.78784,-43.30784,-43.3477,-44.12429,-46.68864,-45.32402,-48.75961,-46.61185,-52.65092,-47.86974,-52.29008,-50.16662,-52.33688,-52.99742,-51.90828,-53.39788,-51.44535,-53.59588,-51.24188,-50.97418,-50.9652,-49.63708,-47.97894,-49.20947,-44.28458,-44.54903,-42.22388,-40.54799,-38.11049,-36.93579,-32.6867,-31.58633,-29.41402,-26.54113,-24.36599,-21.65603,-19.80299,-17.33544,-19.38196,-13.05427,-14.77514,-11.41652,-11.50211,-8.769124,-8.085133,-6.951002,-4.291341,-4.838749,-2.550181,-2.475111,0.5897264,0.3833096,2.334474,1.713576,4.469838,6.331884,6.92898,9.418196,8.668401,9.166797,10.79907,11.01682,9.207707,10.54119,7.378104,8.925444,8.478628,6.10814,5.951673,4.855314,3.515533,4.143679,1.276576,1.849744,-0.09135174,0.3451154,-2.085716,-1.392103,-4.449595,-3.134861,-4.646957,-3.837066,-5.261487,-5.724795,-4.006774,-5.884734,-2.890927,-2.926079,-2.453715,-1.036996,1.841291,2.111432,4.58606,6.377057,7.973025,11.47829,12.86271,15.64495,17.86539,19.85882,22.54807,24.34978,28.60076,26.82722,30.30975,32.07759,33.88872,37.76216,38.73161,42.9815,45.63738,49.14492,53.3261,55.64218,59.24283,62.55574,66.12359,68.4856,71.16292,75.95012,76.52712,81.6237,83.39853,85.71187,88.87077,88.8717,94.0763,92.82719,93.93623,97.21903,95.10789,98.96921,98.1493,96.93443,100.5371,96.95572,98.1482,97.41061,95.1034,94.50211,91.72932,92.34201,86.1316,86.72772,82.28713,80.94014,77.35767,74.5666,71.9245,68.1815,65.00797,61.65886,58.61639,53.67357,50.83438,47.22178,44.68073,41.04303,38.30623,33.81496,34.3622,29.34119,28.43646,25.53171,22.93573,21.48125,17.09796,17.79862,10.71882,12.73442,8.435552,5.906915,4.300087,2.636898,-2.007314,-0.8447719,-4.61224,-5.660114,-7.815147,-9.010321,-9.76392,-11.14316,-12.95158,-11.74067,-13.37013,-13.66765,-14.69359,-13.78168,-16.14709,-14.53329,-16.71895,-13.8806,-16.33066,-14.69886,-15.60843,-14.60276,-13.77273,-15.42852,-13.2812,-14.74139,-12.61454,-12.61057,-11.74265,-11.09348,-11.42604,-10.65828,-10.98049,-10.57525,-10.09631,-12.70257,-11.61158,-14.45181,-14.42754,-18.14963,-16.57779,-18.1899,-19.0989,-17.77576,-20.55121,-18.51533,-21.36501,-20.55596,-22.26541,-22.12904,-23.81297,-23.60383,-22.91095,-25.3604,-24.66826,-25.52597,-26.27969,-25.36699,-26.7647,-26.90212,-27.50325,-28.22622,-27.33261,-29.39751,-27.07208,-27.85416,-28.59118,-27.32721,-27.73782,-27.95989,-27.85181,-28.57079,-27.60076,-27.63306,-26.88549,-28.4617,-25.80044,-27.44178,-27.50501,-23.90176,-28.73628,-23.36146,-27.15001,-23.1715,-24.9828,-24.73001,-24.8461,-23.97064,-23.78215,-23.8906,-23.56189,-23.12972,-22.2462,-22.82749,-22.36558,-21.31321,-21.60409,-21.73101,-20.96848,-21.60153,-20.75803,-20.09648,-19.96155,-19.43372,-19.40786,-18.75602,-21.10577,-18.70163,-18.75398,-20.36954,-19.07906,-19.64741,-17.98384,-19.34752,-18.49806,-18.62448,-18.02507,-18.32418,-17.41867,-16.82891,-17.1756,-17.94691,-16.35954,-17.54796,-17.29616,-17.50862,-17.72252,-17.98161,-18.69388,-17.8012,-20.46168,-17.72991,-20.13338,-17.93069,-18.10989,-18.61971,-17.19829,-18.39594,-16.67062,-17.63807,-17.27744,-17.58673,-16.15552,-16.76325,-16.06711,-17.24158,-16.44424,-17.63584,-14.74049,-17.82937,-15.29268,-18.32209,-15.3754,-16.50275,-15.1189,-17.34674,-16.79282,-16.35863,-16.82143,-15.85371,-17.60527,-15.9335,-17.65662,-17.28301,-16.73905,-17.59344,-17.94197,-18.13442,-17.94361,-17.74684,-18.45813,-19.30481,-18.34405,-17.10415,-18.84164,-17.85373,-18.57789,-18.91558,-17.20328,-18.74078,-17.69772,-17.78001,-17.68276,-17.02304,-15.60896,-18.01216,-14.97659,-18.94424,-15.11736,-15.54219,-18.5283,-13.4947,-17.27209,-10.58349,-14.34655,-12.78126,-13.53675,-11.8338,-12.98438,-13.82449,-13.09908,-13.72927,-15.05288,-13.70238,-15.08913,-13.9652,-16.79034,-15.11186,-16.88692,-15.99832,-17.96379,-16.29891,-19.51586,-16.82488,-19.81766,-17.65416,-20.71897,-16.79845,-20.05641,-17.91125,-17.41613,-18.68446,-16.75632,-17.55048,-14.97627,-15.07386,-13.45208,-12.17226,-9.998835,-8.932046,-5.89871,-6.213109,-2.82805,-2.440566,1.088434,3.259558,3.386012,8.317583,7.979069,12.9961,13.9138,17.88021,20.32383,22.98379,25.34081,29.58809,29.36159,34.51344,37.45381,39.82595,43.07296,45.78301,48.59023,50.93842,53.66426,57.01558,55.85866,58.16185,60.22797,61.19038,65.24776,62.71874,70.34746,67.53901,73.612,71.70714,76.98363,76.82714,79.14766,80.93381,81.45369,82.70341,83.63983,84.84546,85.56592,85.53506,86.95495,84.60036,87.17209,85.4722,84.66762,84.70488,82.33672,81.1387,80.2537,79.39446,75.13981,75.63824,73.44252,71.57265,70.17659,66.59202,65.45787,63.03949,60.98742,57.28451,57.0143,51.3641,53.40599,47.40841,47.99139,45.57551,43.71815,41.38227,37.05781,35.23807,33.19386,29.24028,26.96551,24.23798,22.64859,19.15451,17.20403,14.2671,12.11175,10.36071,7.15785,4.219035,2.518325,-0.2127624,-0.7535617,-4.609491,-8.306981,-8.505174,-11.33745,-11.61619,-15.8702,-15.16998,-18.71485,-18.0395,-20.57016,-22.63501,-21.4759,-23.99698,-22.10896,-23.30903,-23.00075,-22.07282,-21.69395,-21.37223,-20.34544,-21.39351,-19.52205,-20.78869,-17.17799,-19.74477,-17.8071,-16.33876,-18.25828,-13.0946,-16.72266,-13.01769,-15.32605,-14.4998,-13.6821,-12.83657,-14.47804,-11.67043,-14.87609,-13.18165,-15.11442,-14.9461,-16.89979,-17.96609,-18.31245,-21.16504,-23.58871,-25.43247,-23.99231,-26.42292,-24.71187,-28.76926,-25.48659,-29.36085,-27.19895,-28.69065,-27.75657,-29.1469,-29.93584,-29.51728,-30.71257,-30.69023,-32.04552,-31.52665,-32.24093,-32.33598,-32.84541,-33.98035,-33.76108,-34.27248,-34.18064,-34.08774,-35.77744,-32.39555,-34.1796,-32.46455,-32.52086,-31.72187,-31.32873,-31.12891,-31.60575,-29.20487,-31.11779,-28.64621,-30.45693,-27.15676,-28.11251,-29.10527,-25.84152,-27.66459,-24.24423,-25.18402,-24.91377,-23.62099,-23.71166,-21.30475,-22.2803,-21.07927,-21.22424,-20.15188,-19.64608,-18.93282,-19.49051,-19.50056,-18.60678,-18.06308,-19.37963,-18.06436,-19.58703,-19.07637,-18.99742,-21.56959,-18.82178,-21.10879,-19.67131,-20.92504,-20.46061,-21.35886,-21.55239,-23.70823,-19.5273,-23.72744,-19.54521,-22.52214,-21.02622,-19.99578,-20.68753,-19.14581,-20.12938,-20.37568,-18.52943,-20.82051,-17.8384,-21.11799,-17.73951,-20.1265,-16.52566,-20.51128,-17.12543,-20.06215,-17.35809,-19.04486,-17.98032,-19.36655,-17.55544,-17.70026,-18.56135,-18.19639,-19.55291,-18.33265,-19.68065,-18.10498,-20.27786,-18.95346,-20.34971,-19.38298,-21.12752,-18.9722,-20.12519,-18.61287,-18.47041,-18.50025,-16.4075,-18.48477,-16.23732,-16.23546,-15.46849,-16.10308,-15.96346,-15.38901,-14.32647,-15.90255,-15.63202,-13.07745,-17.53028,-13.04363,-15.68301,-13.49739,-17.07751,-11.97239,-16.47564,-11.68408,-14.9289,-13.36018,-14.64466,-11.67182,-16.55388,-11.58461,-11.68161,-12.21927,-10.94679,-9.05024,-10.70491,-9.714696,-11.49768,-7.318795,-11.14309,-9.597491,-9.951525,-9.841387,-10.59134,-9.335655,-12.26742,-8.718801,-11.78092,-8.575265,-12.51743,-8.835447,-11.74567,-9.811879,-9.42492,-10.68957,-7.964351,-11.25578,-6.765652,-7.652608,-7.803241,-4.92455,-5.067663,-3.039393,-1.65447,0.04126238,2.134654,2.762775,5.009802,7.822619,9.708977,11.11545,12.8643,16.0294,17.87436,20.85938,22.29,23.28618,27.23975,29.34423,31.8115,33.29143,36.63387,35.92724,41.92203,39.43159,45.33601,43.25889,47.73384,49.64434,50.31461,50.72298,52.7482,51.21221,57.15837,55.49393,59.59169,58.77374,62.95762,60.99431,65.92095,68.46134,68.18389,70.12523,73.86287,75.29788,77.3596,78.17347,81.18563,80.29352,85.21153,82.72809,86.65314,84.49203,87.5875,86.31188,88.08749,84.62005,89.33264,83.73036,86.72681,85.0123,82.61455,82.80208,80.06121,77.75362,77.83521,73.98886,70.5418,71.91732,66.95081,65.98812,61.3822,62.38903,55.01314,59.63044,49.62458,50.61479,49.1861,44.76799,42.6748,44.06711,37.14753,35.30146,30.363,28.90618,24.25841,22.60514,17.69604,16.67788,12.34743,10.37784,7.377731,2.334005,1.53006,-3.489296,-5.047329,-8.658442,-12.22798,-15.6772,-18.57594,-20.12243,-24.60479,-29.42351,-28.49302,-33.23249,-32.89699,-38.59691,-34.98084,-42.42781,-37.66682,-42.23849,-39.10629,-44.3655,-41.82464,-42.28276,-43.28552,-40.4397,-45.53262,-38.93498,-43.14705,-39.40735,-39.36849,-37.93878,-38.09597,-33.94854,-37.3044,-32.52329,-32.28514,-33.58159,-28.51462,-29.97074,-28.49012,-27.29047,-25.65356,-26.95148,-23.90893,-25.59184,-24.06961,-23.98128,-24.77121,-25.12907,-23.13259,-24.21206,-21.23607,-23.00922,-21.80423,-20.53478,-21.64244,-18.4911,-18.17951,-15.52884,-18.4985,-13.68733,-14.75223,-14.01341,-13.23203,-11.69413,-12.32779,-12.08035,-9.339232,-12.50697,-8.211772,-12.84261,-7.69767,-12.15831,-7.348121,-11.83108,-10.13353,-11.6568,-10.50959,-10.11537,-13.12448,-10.83746,-14.79068,-11.77723,-14.26456,-13.54848,-14.9881,-13.80232,-14.89426,-15.90376,-14.71622,-17.46326,-16.22199,-16.82364,-18.32462,-17.7067,-16.64032,-22.86749,-17.82101,-20.89795,-21.29392,-20.84867,-22.1852,-20.86713,-20.54215,-19.34589,-22.96878,-18.14598,-22.79658,-18.9669,-22.90931,-21.53767,-21.58208,-23.56537,-21.63689,-23.54423,-23.76996,-25.85569,-23.94982,-26.14905,-25.83258,-26.499,-24.45824,-26.62294,-25.57421,-26.72579,-24.53075,-27.25647,-24.62219,-27.96216,-23.84911,-28.72053,-25.23985,-28.21798,-26.41559,-25.27929,-29.81218,-23.86385,-29.44346,-23.51194,-28.83985,-25.59477,-28.54975,-26.58195,-26.653,-27.40407,-26.73296,-28.01927,-25.11087,-26.67309,-27.48498,-24.64463,-28.55728,-25.86476,-26.96784,-25.19796,-27.16984,-24.76096,-27.35634,-25.14383,-25.28129,-25.99321,-26.27652,-24.79959,-26.22203,-23.70387,-26.29069,-23.06923,-27.50122,-21.67634,-26.18297,-23.82673,-26.6266,-24.54203,-24.08554,-23.92176,-25.98631,-23.9434,-23.88903,-21.89175,-21.26082,-21.19043,-21.02554,-21.79521,-19.91329,-23.27377,-22.26643,-21.87779,-24.19956,-22.68948,-25.53131,-25.42706,-26.56757,-26.69862,-27.30488,-28.74684,-29.27094,-29.88845,-31.06776,-31.72346,-30.79592,-33.64487,-30.94406,-33.47125,-30.96603,-34.01347,-30.40482,-33.27156,-28.38628,-30.49899,-27.32063,-26.84132,-25.63458,-24.61287,-20.88614,-20.09575,-19.28226,-16.00239,-15.21046,-9.670263,-11.49313,-2.969274,-6.864334,2.863241,0.5703739,7.825826,7.249026,11.65837,16.11325,19.03783,22.79887,26.12055,28.36026,34.52528,34.58558,42.18857,42.13897,48.56915,48.36699,56.33319,56.02992,62.34039,62.61328,67.07954,71.34952,72.5314,75.4265,78.3388,77.21135,81.43967,80.06335,85.67713,83.12331,88.11612,89.04131,90.15656,93.75458,92.70978,97.67713,95.97417,99.477,100.2386,101.2944,102.1215,103.8628,104.7486,103.7626,106.9621,103.5804,107.5203,105.1384,106.1233,104.1088,105.9012,102.3415,104.1839,101.1955,101.0637,98.29064,99.46909,95.5569,95.01237,94.22925,91.93417,91.81152,88.28703,90.62168,86.59139,87.88648,85.04199,83.89557,79.08294,80.40905,72.4183,76.53307,68.55068,70.22167,65.66455,64.59466,60.20872,58.74639,56.56725,52.83112,50.4611,46.27736,43.65093,42.63383,38.48627,35.87546,35.65996,30.41066,31.21516,27.33483,25.70791,22.97389,20.96774,19.70967,16.17463,14.66693,12.1418,12.39083,8.802226,9.955593,6.196339,8.506009,4.134246,7.893105,2.994349,6.393297,2.006701,5.416741,3.072768,2.814036,5.279429,0.7802049,5.25521,1.619555,5.112319,3.01796,4.939204,3.537339,6.278039,3.609838,7.168375,4.220584,8.383845,5.846954,7.414001,6.112722,6.986721,6.468735,7.291363,4.236184,6.538856,2.090234,3.024909,0.2830379,-0.2946406,-3.719745,-2.026765,-4.094028,-4.333079,-5.014327,-4.772811,-7.436102,-5.769511,-8.820392,-7.088922,-9.724268,-9.212056,-9.55922,-11.40359,-10.06127,-11.96753,-11.40095,-12.37282,-11.66167,-12.91556,-13.52659,-11.90295,-14.31146,-11.68431,-14.37203,-13.39764,-13.74133,-13.92308,-13.04945,-15.27178,-12.89226,-14.89534,-13.26352,-15.1968,-12.10625,-15.05708,-13.12651,-12.16555,-12.07123,-12.83173,-10.96704,-11.89657,-11.58619,-9.709134,-10.38754,-11.60047,-6.562509,-12.39209,-7.493725,-7.714807,-9.141825,-8.098461,-8.644955,-6.713108,-9.076176,-8.111839,-8.071979,-7.522811,-6.870988,-7.211014,-7.794772,-5.891354,-9.607132,-5.112251,-9.956961,-9.726805,-9.279402,-12.11259,-9.753977,-12.89695,-11.04835,-13.70812,-10.82461,-14.95254,-10.85755,-15.54406,-11.95838,-15.72784,-12.26095,-17.15589,-13.83615,-17.01022,-15.76447,-16.89808,-16.14459,-18.34216,-18.00153,-19.21154,-18.59831,-18.94861,-20.24249,-20.33601,-22.33247,-23.24834,-24.15057,-23.95517,-25.2338,-26.87344,-25.47202,-27.51573,-25.35889,-27.84675,-25.78116,-27.76901,-26.09165,-26.98508,-27.49637,-25.11251,-25.94902,-24.32921,-25.89568,-23.26081,-24.16579,-21.93829,-23.20599,-22.46336,-24.97624,-21.04892,-25.83499,-20.90503,-27.23154,-21.30373,-27.21661,-24.86761,-24.92059,-27.46336,-29.11759,-28.95293,-30.54957,-32.65668,-33.47475,-33.92486,-38.31334,-36.41932,-41.01133,-41.98068,-45.9851,-47.7176,-48.72989,-51.29083,-51.69688,-55.4669,-55.25347,-57.88189,-55.66051,-60.14318,-59.72998,-59.62641,-61.63541,-61.21572,-60.52381,-62.71852,-61.72524,-62.38962,-61.69429,-63.13089,-60.86535,-64.86376,-59.62087,-61.83784,-62.59477,-60.85034,-61.04352,-60.75834,-60.98654,-60.36462,-60.29975,-60.82689,-60.12637,-58.40729,-60.41522,-59.51438,-58.69051,-59.08535,-58.06888,-59.01218,-56.00259,-57.85713,-55.64248,-56.97829,-54.3682,-57.7526,-52.31129,-57.11452,-53.90624,-55.41614,-55.07234,-54.39252,-54.54437,-53.2286,-53.37051,-51.75982,-53.99166,-49.44393,-52.10136,-48.77126,-49.77129,-49.8001,-46.14674,-49.15088,-47.13837,-49.72226,-48.68849,-49.75193,-47.13922,-50.43593,-47.77782,-50.68498,-48.51937,-49.09058,-49.88853,-49.81044,-51.15788,-47.79278,-50.57866,-47.46429,-49.19535,-48.00815,-47.92243,-47.5256,-47.18589,-47.1914,-47.99098,-47.52364,-49.84463,-47.7962,-51.26259,-47.98747,-51.50611,-48.74707,-50.2161,-48.79743,-51.23119,-50.93566,-48.90455,-52.59133,-50.99232,-50.92638,-53.07556,-51.45812,-52.81485,-53.0595,-56.1589,-53.30225,-57.94327,-56.71705,-59.87245,-57.08583,-61.14539,-58.59641,-61.29554,-61.43065,-61.98609,-61.66773,-61.98874,-63.25291,-63.22174,-62.7351,-63.30308,-62.62241,-61.10954,-63.02338,-58.01307,-59.97091,-56.77448,-59.16149,-55.6986,-59.48925,-55.52498,-59.68828,-57.68715,-59.07051,-59.44365,-61.78421,-60.67661,-62.74271,